*Energy (MeV/u)1	0 - [He-base] F.Hubert et al. AD&ND Tables 46(1990)1	Energy (MeV/u)2	1 - [H -base] J.F.Ziegler et al.Pergamon Press.NY(low energy)	Energy (MeV/u)3	2 - ATIMA 1.2 LS-theory (recommended for high energy)	Energy (MeV/u)4	3 - ATIMA 1.2 without LS-correction	Energy (MeV/u)5	4 - ATIMA 1.4 H.Weick. improved mean charge formula for HI	Energy (MeV/u)6	5 - electrical component of [1] - J.F.Ziegler et al	Energy (MeV/u)7	6 - nuclear component of [1] - J.F.Ziegler et al	
0.001000	0.0569528 	0.001000	0.0328516 	0.001000	0.0318775 	0.001000	0.0318775 	0.001000	0.0318623 	0.001000	0.0271127 	0.001000	0.00573883	
0.002000	0.0670829 	0.002000	0.0412473 	0.002000	0.0399166 	0.002000	0.0399166 	0.002000	0.0399077 	0.002000	0.0370371 	0.002000	0.00421026	
0.005000	0.0875061 	0.005000	0.0584387 	0.005000	0.0564288 	0.005000	0.0564288 	0.005000	0.0564248 	0.005000	0.0559384 	0.005000	0.00250033	
0.008000	0.10171   	0.008000	0.0709557 	0.008000	0.0684724 	0.008000	0.0684724 	0.008000	0.0684699 	0.008000	0.0691136 	0.008000	0.00184207	
0.010000	0.10946   	0.010000	0.0779959 	0.010000	0.0752502 	0.010000	0.0752502 	0.010000	0.0752482 	0.010000	0.076414  	0.010000	0.00158181	
0.015000	0.13195   	0.015000	0.0921343 	0.015000	0.0895906 	0.015000	0.0895906 	0.015000	0.0895893 	0.015000	0.0909579 	0.015000	0.00117636	
0.020000	0.150391  	0.020000	0.102829  	0.020000	0.101587  	0.020000	0.101587  	0.020000	0.101586  	0.020000	0.101876  	0.020000	0.000952938	
0.025000	0.165647  	0.025000	0.111013  	0.025000	0.11207   	0.025000	0.11207   	0.025000	0.112069  	0.025000	0.110206  	0.025000	0.0008062 	
0.030000	0.178183  	0.030000	0.117233  	0.030000	0.117439  	0.030000	0.117439  	0.030000	0.117438  	0.030000	0.116532  	0.030000	0.00070169	
0.035000	0.188307  	0.035000	0.121873  	0.035000	0.121508  	0.035000	0.121508  	0.035000	0.121508  	0.035000	0.12125   	0.035000	0.000623086	
0.040000	0.196259  	0.040000	0.125226  	0.040000	0.124524  	0.040000	0.124524  	0.040000	0.124524  	0.040000	0.124664  	0.040000	0.0005616 	
0.045000	0.202259  	0.045000	0.127533  	0.045000	0.126677  	0.045000	0.126677  	0.045000	0.126676  	0.045000	0.127021  	0.045000	0.000512059	
0.050000	0.206516  	0.050000	0.128995  	0.050000	0.128119  	0.050000	0.128119  	0.050000	0.128119  	0.050000	0.128524  	0.050000	0.000471205	
0.055000	0.209238  	0.055000	0.129781  	0.055000	0.128977  	0.055000	0.128977  	0.055000	0.128977  	0.055000	0.129344  	0.055000	0.000436882	
0.060000	0.210629  	0.060000	0.130032  	0.060000	0.129359  	0.060000	0.129359  	0.060000	0.129358  	0.060000	0.129624  	0.060000	0.000407599	
0.070000	0.210192  	0.070000	0.129378  	0.070000	0.129033  	0.070000	0.129033  	0.070000	0.129033  	0.070000	0.129017  	0.070000	0.000360189	
0.080000	0.206637  	0.080000	0.127735  	0.080000	0.127703  	0.080000	0.127703  	0.080000	0.127702  	0.080000	0.127411  	0.080000	0.000323366	
0.090000	0.201144  	0.090000	0.125557  	0.090000	0.125758  	0.090000	0.125758  	0.090000	0.125758  	0.090000	0.125263  	0.090000	0.000293866	
0.100000	0.194605  	0.100000	0.123126  	0.100000	0.123468  	0.100000	0.123468  	0.100000	0.123468  	0.100000	0.122856  	0.100000	0.000269655	
0.120000	0.180689  	0.120000	0.118105  	0.120000	0.118501  	0.120000	0.118501  	0.120000	0.118501  	0.120000	0.117873  	0.120000	0.000232177	
0.140000	0.167638  	0.140000	0.113313  	0.140000	0.113584  	0.140000	0.113584  	0.140000	0.113584  	0.140000	0.113108  	0.140000	0.000204418	
0.160000	0.156309  	0.160000	0.108913  	0.160000	0.108999  	0.160000	0.108999  	0.160000	0.108999  	0.160000	0.10873   	0.160000	0.000182966	
0.180000	0.146736  	0.180000	0.104911  	0.180000	0.104815  	0.180000	0.104815  	0.180000	0.104815  	0.180000	0.104745  	0.180000	0.000165851	
0.200000	0.138682  	0.200000	0.101265  	0.200000	0.101017  	0.200000	0.101017  	0.200000	0.101017  	0.200000	0.101113  	0.200000	0.000151854	
0.250000	0.123387  	0.250000	0.0934057 	0.250000	0.0929343 	0.250000	0.0929343 	0.250000	0.0929342 	0.250000	0.0932799 	0.250000	0.000125868	
0.300000	0.11248   	0.300000	0.0869025 	0.300000	0.086371  	0.300000	0.086371  	0.300000	0.086371  	0.300000	0.0867946 	0.300000	0.000107876	
0.350000	0.104106  	0.350000	0.0813873 	0.350000	0.0808811 	0.350000	0.0808811 	0.350000	0.0808811 	0.350000	0.0812927 	0.350000	9.46286e-05	
0.400000	0.0973152 	0.400000	0.0766278 	0.400000	0.0761834 	0.400000	0.0761834 	0.400000	0.0761834 	0.400000	0.0765434 	0.400000	8.444e-05 	
0.450000	0.0916001 	0.450000	0.0724666 	0.450000	0.0720954 	0.450000	0.0720954 	0.450000	0.0720954 	0.450000	0.0723903 	0.450000	7.63437e-05	
0.500000	0.0866673 	0.500000	0.0687909 	0.500000	0.0684923 	0.500000	0.0684923 	0.500000	0.0684923 	0.500000	0.0687211 	0.500000	6.97445e-05	
0.600000	0.0784786 	0.600000	0.0625778 	0.600000	0.0624052 	0.600000	0.0624052 	0.600000	0.0624052 	0.600000	0.0625182 	0.600000	5.96133e-05	
0.700000	0.0718785 	0.700000	0.0575147 	0.700000	0.0574371 	0.700000	0.0574371 	0.700000	0.0574371 	0.700000	0.0574626 	0.700000	5.21789e-05	
0.800000	0.0664043 	0.800000	0.0533    	0.800000	0.0532904 	0.800000	0.0532904 	0.800000	0.0532904 	0.800000	0.0532535 	0.800000	4.64766e-05	
0.900000	0.0617725 	0.900000	0.0497307 	0.900000	0.0497686 	0.900000	0.0497686 	0.900000	0.0497687 	0.900000	0.0496888 	0.900000	4.19554e-05	
1.000000	0.0577934 	1.000000	0.0466647 	1.000000	0.0467351 	1.000000	0.0467351 	1.000000	0.0467351 	1.000000	0.0466264 	1.000000	3.82775e-05	
1.250000	0.0499065 	1.250000	0.0405908 	1.250000	0.0407008 	1.250000	0.0407008 	1.250000	0.0407008 	1.250000	0.0405593 	1.250000	3.1499e-05	
1.500000	0.0440309 	1.500000	0.0360659 	1.500000	0.0361837 	1.500000	0.0361837 	1.500000	0.0361837 	1.500000	0.036039  	1.500000	2.68463e-05	
1.750000	0.0394698 	1.750000	0.0325496 	1.750000	0.0326612 	1.750000	0.0326612 	1.750000	0.0326612 	1.750000	0.0325262 	1.750000	2.34439e-05	
2.000000	0.0358185 	2.000000	0.0297293 	2.000000	0.0298285 	2.000000	0.0298285 	2.000000	0.0298285 	2.000000	0.0297085 	2.000000	2.08414e-05	
2.250000	0.0328243 	2.250000	0.0274109 	2.250000	0.0274956 	2.250000	0.0274956 	2.250000	0.0274956 	2.250000	0.0273922 	2.250000	1.87828e-05	
2.500000	0.0301896 	2.500000	0.0254674 	2.500000	0.025537  	2.500000	0.025537  	2.500000	0.025537  	2.500000	0.0254503 	2.500000	1.71116e-05	
3.000000	0.0263609 	3.000000	0.0223822 	3.000000	0.0224237 	3.000000	0.0224237 	3.000000	0.0224237 	3.000000	0.0223676 	3.000000	1.45582e-05	
3.500000	0.0234551 	3.500000	0.0200335 	3.500000	0.0200507 	3.500000	0.0200507 	3.500000	0.0200508 	3.500000	0.0200208 	3.500000	1.26949e-05	
4.000000	0.0211681 	4.000000	0.0181787 	4.000000	0.0181757 	4.000000	0.0181757 	4.000000	0.0181757 	4.000000	0.0181674 	4.000000	1.1272e-05	
4.500000	0.0193175 	4.500000	0.0166725 	4.500000	0.0166527 	4.500000	0.0166527 	4.500000	0.0166527 	4.500000	0.0166623 	4.500000	1.01481e-05	
5.000000	0.0177868 	5.000000	0.0154222 	5.000000	0.0153885 	5.000000	0.0153885 	5.000000	0.0153885 	5.000000	0.0154129 	5.000000	9.23685e-06	
5.500000	0.016498  	5.500000	0.0143656 	5.500000	0.0143204 	5.500000	0.0143204 	5.500000	0.0143204 	5.500000	0.0143572 	5.500000	8.48227e-06	
6.000000	0.0153968 	6.000000	0.0134597 	6.000000	0.0134048 	6.000000	0.0134048 	6.000000	0.0134048 	6.000000	0.0134519 	6.000000	7.84666e-06	
6.500000	0.0144443 	6.500000	0.0126733 	6.500000	0.0126102 	6.500000	0.0126102 	6.500000	0.0126103 	6.500000	0.012666  	6.500000	7.30357e-06	
7.000000	0.0136117 	7.000000	0.0119835 	7.000000	0.0119136 	7.000000	0.0119136 	7.000000	0.0119136 	7.000000	0.0119767 	7.000000	6.83389e-06	
7.500000	0.0128772 	7.500000	0.0113729 	7.500000	0.0112972 	7.500000	0.0112972 	7.500000	0.0112972 	7.500000	0.0113665 	7.500000	6.42349e-06	
8.000000	0.0122241 	8.000000	0.0108282 	8.000000	0.0107475 	8.000000	0.0107475 	8.000000	0.0107475 	8.000000	0.0108222 	8.000000	6.06166e-06	
8.500000	0.0116393 	8.500000	0.010339  	8.500000	0.010254  	8.500000	0.010254  	8.500000	0.010254  	8.500000	0.0103332 	8.500000	5.74013e-06	
9.000000	0.0111125 	9.000000	0.00989677	9.000000	0.0098082 	9.000000	0.0098082 	9.000000	0.00980821	9.000000	0.00989132	9.000000	5.45243e-06	
9.500000	0.0106352 	9.500000	0.00949495	9.500000	0.00940328	9.500000	0.00940328	9.500000	0.00940328	9.500000	0.00948975	9.500000	5.19342e-06	
10.000000	0.0102006 	10.000000	0.00917167	10.000000	0.00903369	10.000000	0.00903369	10.000000	0.0090337 	10.000000	0.00916671	10.000000	4.95895e-06	
11.000000	0.00943831	11.000000	0.00854636	11.000000	0.00838519	11.000000	0.00838527	11.000000	0.00838457	11.000000	0.00854181	11.000000	4.5507e-06	
12.000000	0.00879089	12.000000	0.0080058 	12.000000	0.00783287	12.000000	0.00783304	12.000000	0.00783242	12.000000	0.0080016 	12.000000	4.2071e-06	
13.000000	0.0082338 	13.000000	0.0075339 	13.000000	0.00735659	13.000000	0.00735669	13.000000	0.00735629	13.000000	0.00752998	13.000000	3.91373e-06	
14.000000	0.00774904	14.000000	0.00711832	14.000000	0.00694131	14.000000	0.0069413 	14.000000	0.0069411 	14.000000	0.00711466	14.000000	3.66018e-06	
15.000000	0.00732315	15.000000	0.00674952	15.000000	0.00657565	15.000000	0.00657567	15.000000	0.00657562	15.000000	0.00674608	15.000000	3.43876e-06	
16.000000	0.00694583	16.000000	0.00641997	16.000000	0.00625129	16.000000	0.0062512 	16.000000	0.00625128	16.000000	0.00641672	16.000000	3.24366e-06	
17.000000	0.00660908	17.000000	0.00612367	17.000000	0.00596157	17.000000	0.00596122	17.000000	0.00596139	17.000000	0.0061206 	17.000000	3.07037e-06	
18.000000	0.00630657	18.000000	0.00585579	18.000000	0.0057009 	18.000000	0.00570043	18.000000	0.00570069	18.000000	0.00585288	18.000000	2.9154e-06	
19.000000	0.00603325	19.000000	0.00561239	19.000000	0.00546504	19.000000	0.00546458	19.000000	0.00546493	19.000000	0.00560962	19.000000	2.77593e-06	
20.000000	0.005785  	20.000000	0.00539023	20.000000	0.0052507 	20.000000	0.00525023	20.000000	0.00525067	20.000000	0.00538758	20.000000	2.64974e-06	
21.000000	0.00555847	21.000000	0.00518661	21.000000	0.00505506	21.000000	0.00505455	21.000000	0.00505507	21.000000	0.00518408	21.000000	2.53497e-06	
22.000000	0.00535087	22.000000	0.00499928	22.000000	0.00487568	22.000000	0.00487519	22.000000	0.0048758 	22.000000	0.00499685	22.000000	2.43014e-06	
23.000000	0.00515989	23.000000	0.00482634	23.000000	0.0047107 	23.000000	0.0047102 	23.000000	0.00471089	23.000000	0.004824  	23.000000	2.33397e-06	
24.000000	0.00498357	24.000000	0.00466616	24.000000	0.00455862	24.000000	0.00455792	24.000000	0.00455869	24.000000	0.00466392	24.000000	2.24544e-06	
25.000000	0.00482024	25.000000	0.00451737	25.000000	0.00441796	25.000000	0.00441695	25.000000	0.00441781	25.000000	0.00451521	25.000000	2.16364e-06	
27.000000	0.00452715	27.000000	0.00424937	27.000000	0.00416559	27.000000	0.00416431	27.000000	0.00416533	27.000000	0.00424736	27.000000	2.01737e-06	
29.000000	0.00427149	29.000000	0.0040146 	29.000000	0.00394578	29.000000	0.00394453	29.000000	0.00394569	29.000000	0.00401271	29.000000	1.89035e-06	
31.000000	0.00404641	31.000000	0.00380717	31.000000	0.00374843	31.000000	0.00374715	31.000000	0.00374841	31.000000	0.00380539	31.000000	1.77896e-06	
33.000000	0.00384663	33.000000	0.00362251	33.000000	0.00356861	33.000000	0.00356741	33.000000	0.00356868	33.000000	0.00362083	33.000000	1.68045e-06	
35.000000	0.00366804	35.000000	0.00345701	35.000000	0.00340734	35.000000	0.00340627	35.000000	0.00340755	35.000000	0.00345542	35.000000	1.59269e-06	
38.000000	0.00343292	38.000000	0.00323858	38.000000	0.00319489	38.000000	0.00319345	38.000000	0.00319473	38.000000	0.0032371 	38.000000	1.47758e-06	
41.000000	0.00322984	41.000000	0.00304943	41.000000	0.00301049	41.000000	0.00300901	41.000000	0.00301028	41.000000	0.00304805	41.000000	1.37857e-06	
44.000000	0.00305254	44.000000	0.00288397	44.000000	0.00284886	44.000000	0.00284751	44.000000	0.00284877	44.000000	0.00288268	44.000000	1.29246e-06	
47.000000	0.00289632	47.000000	0.00273797	47.000000	0.00270614	47.000000	0.00270486	47.000000	0.00270611	47.000000	0.00273675	47.000000	1.21686e-06	
50.000000	0.00275757	50.000000	0.00260813	50.000000	0.00257908	50.000000	0.00257788	50.000000	0.00257912	50.000000	0.00260698	50.000000	1.14992e-06	
55.000000	0.0025577 	55.000000	0.00242093	55.000000	0.00239565	55.000000	0.00239454	55.000000	0.00239575	55.000000	0.00241987	55.000000	1.0539e-06	
60.000000	0.00238896	60.000000	0.00226274	60.000000	0.00224047	60.000000	0.00223937	60.000000	0.00224056	60.000000	0.00226176	60.000000	9.73199e-07	
65.000000	0.00224445	65.000000	0.00212724	65.000000	0.00210754	65.000000	0.00210624	65.000000	0.00210741	65.000000	0.00212633	65.000000	9.04387e-07	
70.000000	0.00211922	70.000000	0.00200982	70.000000	0.0019919 	70.000000	0.00199072	70.000000	0.00199185	70.000000	0.00200897	70.000000	8.44989e-07	
75.000000	0.00200957	75.000000	0.00190705	75.000000	0.00189058	75.000000	0.00188946	75.000000	0.00189058	75.000000	0.00190626	75.000000	7.93176e-07	
80.000000	0.00191272	80.000000	0.00181632	80.000000	0.00180102	80.000000	0.00179996	80.000000	0.00180106	80.000000	0.00181558	80.000000	7.47566e-07	
85.000000	0.00182649	85.000000	0.00173562	85.000000	0.00172125	85.000000	0.00172026	85.000000	0.00172133	85.000000	0.00173491	85.000000	7.07095e-07	
90.000000	0.00174919	90.000000	0.00166335	90.000000	0.00164976	90.000000	0.0016488 	90.000000	0.00164985	90.000000	0.00166268	90.000000	6.70932e-07	
95.000000	0.00167947	95.000000	0.00159824	95.000000	0.0015855 	95.000000	0.00158436	95.000000	0.00158539	95.000000	0.0015976 	95.000000	6.38416e-07	
100.000000	0.00161625	100.000000	0.00153927	100.000000	0.00152703	100.000000	0.00152594	100.000000	0.00152696	100.000000	0.00153866	100.000000	6.09015e-07	
105.000000	0.00155864	105.000000	0.0014856 	105.000000	0.00147377	105.000000	0.00147273	105.000000	0.00147373	105.000000	0.00148502	105.000000	5.82297e-07	
110.000000	0.0015059 	110.000000	0.00143654	110.000000	0.00142506	110.000000	0.00142406	110.000000	0.00142504	110.000000	0.00143598	110.000000	5.57907e-07	
115.000000	0.00145744	115.000000	0.00139152	115.000000	0.00138032	115.000000	0.00137935	115.000000	0.00138032	115.000000	0.00139099	115.000000	5.35549e-07	
120.000000	0.00141272	120.000000	0.00135005	120.000000	0.00133908	120.000000	0.00133815	120.000000	0.00133911	120.000000	0.00134954	120.000000	5.14977e-07	
125.000000	0.00137134	125.000000	0.00131173	125.000000	0.00130096	125.000000	0.00130006	125.000000	0.001301  	125.000000	0.00131124	125.000000	4.95982e-07	
130.000000	0.00133291	130.000000	0.00127621	130.000000	0.00126559	130.000000	0.00126472	130.000000	0.00126565	130.000000	0.00127573	130.000000	4.78388e-07	
135.000000	0.00129712	135.000000	0.00124318	135.000000	0.00123269	135.000000	0.00123186	135.000000	0.00123277	135.000000	0.00124272	135.000000	4.62043e-07	
140.000000	0.00126371	140.000000	0.0012124 	140.000000	0.0012021 	140.000000	0.00120122	140.000000	0.00120212	140.000000	0.00121196	140.000000	4.46818e-07	
145.000000	0.00123244	145.000000	0.00118365	145.000000	0.00117354	145.000000	0.00117258	145.000000	0.00117347	145.000000	0.00118321	145.000000	4.32599e-07	
150.000000	0.00120311	150.000000	0.00115672	150.000000	0.00114668	150.000000	0.00114575	150.000000	0.00114663	150.000000	0.0011563 	150.000000	4.1929e-07	
155.000000	0.0011618 	155.000000	0.00113144	155.000000	0.00112146	155.000000	0.00112056	155.000000	0.00112143	155.000000	0.00113103	155.000000	4.06803e-07	
160.000000	0.00113759	160.000000	0.00110768	160.000000	0.00109776	160.000000	0.00109687	160.000000	0.00109773	160.000000	0.00110728	160.000000	3.95066e-07	
165.000000	0.00111476	165.000000	0.00108529	165.000000	0.00107541	165.000000	0.00107455	165.000000	0.0010754 	165.000000	0.0010849 	165.000000	3.8401e-07	
170.000000	0.00109319	170.000000	0.00106416	170.000000	0.00105432	170.000000	0.00105348	170.000000	0.00105432	170.000000	0.00106379	170.000000	3.73578e-07	
175.000000	0.00107279	175.000000	0.00104419	175.000000	0.00103439	175.000000	0.00103356	175.000000	0.00103439	175.000000	0.00104382	175.000000	3.63719e-07	
180.000000	0.00105345	180.000000	0.00102528	180.000000	0.00101551	180.000000	0.0010147 	180.000000	0.00101553	180.000000	0.00102492	180.000000	3.54384e-07	
185.000000	0.00103509	185.000000	0.00100735	185.000000	0.000997607	185.000000	0.000996817	185.000000	0.000997634	185.000000	0.00100701	185.000000	3.45534e-07	
190.000000	0.00101765	190.000000	0.00099033	190.000000	0.000980613	190.000000	0.000979836	190.000000	0.000980646	190.000000	0.000989993	190.000000	3.3713e-07	
195.000000	0.00100105	195.000000	0.000974148	195.000000	0.000964444	195.000000	0.000963692	195.000000	0.000964494	195.000000	0.000973819	195.000000	3.2914e-07	
200.000000	0.000985233	200.000000	0.000958745	200.000000	0.000949056	200.000000	0.000948324	200.000000	0.000949119	200.000000	0.000958423	200.000000	3.21534e-07	
210.000000	0.000955735	210.000000	0.00093006	210.000000	0.000920523	210.000000	0.000919706	210.000000	0.000920488	210.000000	0.000929752	210.000000	3.07364e-07	
220.000000	0.000928775	220.000000	0.000903894	220.000000	0.000894418	220.000000	0.000893603	220.000000	0.000894373	220.000000	0.000903599	220.000000	2.94432e-07	
230.000000	0.000904037	230.000000	0.00087993	230.000000	0.000870484	230.000000	0.000869702	230.000000	0.00087046	230.000000	0.000879647	230.000000	2.8258e-07	
240.000000	0.000881255	240.000000	0.000857902	240.000000	0.000848499	240.000000	0.000847737	240.000000	0.000848485	240.000000	0.000857631	240.000000	2.71677e-07	
250.000000	0.000860204	250.000000	0.000837587	250.000000	0.000828226	250.000000	0.000827486	250.000000	0.000828224	250.000000	0.000837326	250.000000	2.61612e-07	
260.000000	0.000840695	260.000000	0.000818794	260.000000	0.000809478	260.000000	0.000808759	260.000000	0.000809487	260.000000	0.000818541	260.000000	2.52291e-07	
270.000000	0.000822562	270.000000	0.000801359	270.000000	0.000792095	270.000000	0.000791392	270.000000	0.000792112	270.000000	0.000801115	270.000000	2.43634e-07	
280.000000	0.000805666	280.000000	0.000785141	280.000000	0.000775932	280.000000	0.000775246	280.000000	0.000775957	280.000000	0.000784906	280.000000	2.35571e-07	
290.000000	0.000789885	290.000000	0.00077002	290.000000	0.000760857	290.000000	0.000760199	290.000000	0.000760902	290.000000	0.000769792	290.000000	2.28042e-07	
300.000000	0.000775111	300.000000	0.000755888	300.000000	0.000746835	300.000000	0.000746144	300.000000	0.00074684	300.000000	0.000755667	300.000000	2.20996e-07	
310.000000	0.000761253	310.000000	0.000742654	310.000000	0.000733726	310.000000	0.000732989	310.000000	0.000733678	310.000000	0.00074244	310.000000	2.14386e-07	
320.000000	0.000748227	320.000000	0.000730236	320.000000	0.000721374	320.000000	0.000720653	320.000000	0.000721335	320.000000	0.000730028	320.000000	2.08174e-07	
330.000000	0.000735962	330.000000	0.000718562	330.000000	0.000709764	330.000000	0.000709064	330.000000	0.000709739	330.000000	0.00071836	330.000000	2.02324e-07	
340.000000	0.000724395	340.000000	0.00070757	340.000000	0.000698848	340.000000	0.000698157	340.000000	0.000698827	340.000000	0.000707373	340.000000	1.96805e-07	
350.000000	0.000713467	350.000000	0.000697201	350.000000	0.000688555	350.000000	0.000687877	350.000000	0.000688541	350.000000	0.000697009	350.000000	1.91589e-07	
360.000000	0.000703128	360.000000	0.000687406	360.000000	0.000678838	360.000000	0.000678172	360.000000	0.000678831	360.000000	0.00068722	360.000000	1.86651e-07	
370.000000	0.000693333	370.000000	0.000678141	370.000000	0.000669653	370.000000	0.000668998	370.000000	0.000669651	370.000000	0.000677959	370.000000	1.8197e-07	
380.000000	0.000684041	380.000000	0.000669363	380.000000	0.000660959	380.000000	0.000660313	380.000000	0.000660962	380.000000	0.000669186	380.000000	1.77526e-07	
390.000000	0.000675215	390.000000	0.000661038	390.000000	0.000652718	390.000000	0.000652082	390.000000	0.000652726	390.000000	0.000660865	390.000000	1.73302e-07	
