Energy (MeV/u)1	0 - [He-base] F.Hubert et al, AD&ND Tables 46(1990)1	Energy (MeV/u)2	1 - [H -base] J.F.Ziegler et al, Pergamon Press, NY (low energy)	Energy (MeV/u)3	2 - ATIMA 1.2  LS-theory (recommended for high energy)	Energy (MeV/u)4	3 - ATIMA 1.2  without LS-correction	Energy (MeV/u)5	4 - electrical component of [1] - J.F.Ziegler et al	Energy (MeV/u)6	5 - nuclear component of [1] - J.F.Ziegler et al	
0.001000	2.91274e-05	0.001000	3.04252e-05	0.001000	3.0935e-05	0.001000	3.0935e-05	0.001000	8.7683e-06	0.001000	2.16569e-05	
0.002000	2.95805e-05	0.002000	2.77517e-05	0.002000	2.95015e-05	0.002000	2.95015e-05	0.002000	1.13711e-05	0.002000	1.63806e-05	
0.005000	3.2301e-05	0.005000	2.60714e-05	0.005000	3.07835e-05	0.005000	3.07835e-05	0.005000	1.60335e-05	0.005000	1.00379e-05	
0.008000	3.52255e-05	0.008000	2.66102e-05	0.008000	3.37276e-05	0.008000	3.37276e-05	0.008000	1.91238e-05	0.008000	7.48642e-06	
0.010000	3.70546e-05	0.010000	2.7254e-05	0.010000	3.57996e-05	0.010000	3.57996e-05	0.010000	2.07929e-05	0.010000	6.46113e-06	
0.015000	4.36558e-05	0.015000	2.90955e-05	0.015000	4.08201e-05	0.015000	4.08201e-05	0.015000	2.42075e-05	0.015000	4.88798e-06	
0.020000	5.00456e-05	0.020000	3.0908e-05	0.020000	4.54337e-05	0.020000	4.54337e-05	0.020000	2.69651e-05	0.020000	3.94293e-06	
0.025000	5.73545e-05	0.025000	3.29538e-05	0.025000	4.97577e-05	0.025000	4.97577e-05	0.025000	2.96056e-05	0.025000	3.34814e-06	
0.030000	6.4058e-05	0.030000	4.10612e-05	0.030000	5.52189e-05	0.030000	5.52189e-05	0.030000	3.81392e-05	0.030000	2.92207e-06	
0.035000	7.00159e-05	0.035000	4.93418e-05	0.035000	6.06553e-05	0.035000	6.06553e-05	0.035000	4.67415e-05	0.035000	2.60026e-06	
0.040000	7.51369e-05	0.040000	5.73754e-05	0.040000	6.60409e-05	0.040000	6.60409e-05	0.040000	5.50276e-05	0.040000	2.34771e-06	
0.045000	7.93256e-05	0.045000	6.50436e-05	0.045000	7.13559e-05	0.045000	7.13559e-05	0.045000	6.28999e-05	0.045000	2.14368e-06	
0.050000	8.19139e-05	0.050000	7.23389e-05	0.050000	7.6584e-05	0.050000	7.6584e-05	0.050000	7.03638e-05	0.050000	1.97507e-06	
0.055000	8.62988e-05	0.055000	7.92997e-05	0.055000	8.17116e-05	0.055000	8.17116e-05	0.055000	7.74666e-05	0.055000	1.83314e-06	
0.060000	9.01788e-05	0.060000	8.52998e-05	0.060000	8.67272e-05	0.060000	8.67272e-05	0.060000	8.35879e-05	0.060000	1.71187e-06	
0.070000	9.65138e-05	0.070000	9.58614e-05	0.070000	9.63852e-05	0.070000	9.63852e-05	0.070000	9.43463e-05	0.070000	1.51513e-06	
0.080000	0.000103223	0.080000	0.000105662	0.080000	0.000105498	0.080000	0.000105498	0.080000	0.0001043 	0.080000	1.36198e-06	
0.090000	0.000108731	0.090000	0.000114751	0.090000	0.000114026	0.090000	0.000114026	0.090000	0.000113512	0.090000	1.23906e-06	
0.100000	0.000113026	0.100000	0.000123137	0.100000	0.000121948	0.100000	0.000121948	0.100000	0.000121999	0.100000	1.13803e-06	
0.120000	0.000115937	0.120000	0.000136488	0.120000	0.000135959	0.120000	0.000135959	0.120000	0.000135507	0.120000	9.81349e-07	
0.140000	0.000117898	0.140000	0.000146741	0.140000	0.000147607	0.140000	0.000147607	0.140000	0.000145876	0.140000	8.65063e-07	
0.160000	0.000119667	0.160000	0.00015532	0.160000	0.000157085	0.160000	0.000157085	0.160000	0.000154545	0.160000	7.75051e-07	
0.180000	0.000121557	0.180000	0.000162481	0.180000	0.000164647	0.180000	0.000164647	0.180000	0.000161778	0.180000	7.03141e-07	
0.200000	0.000124541	0.200000	0.000169023	0.200000	0.000170567	0.200000	0.000170567	0.200000	0.000168379	0.200000	6.44265e-07	
0.250000	0.00012787	0.250000	0.000182639	0.250000	0.000179858	0.250000	0.000179858	0.250000	0.000182104	0.250000	5.34792e-07	
0.300000	0.000130835	0.300000	0.0001908 	0.300000	0.000183876	0.300000	0.000183876	0.300000	0.000190342	0.300000	4.58856e-07	
0.350000	0.000134038	0.350000	0.000196318	0.350000	0.000184899	0.350000	0.000184899	0.350000	0.000195915	0.350000	4.02868e-07	
0.400000	0.000136734	0.400000	0.000200181	0.400000	0.000185057	0.400000	0.000185057	0.400000	0.000199821	0.400000	3.59757e-07	
0.450000	0.000138608	0.450000	0.000202054	0.450000	0.000186244	0.450000	0.000186244	0.450000	0.000201729	0.450000	3.25467e-07	
0.500000	0.000139804	0.500000	0.000202565	0.500000	0.00018631	0.500000	0.00018631	0.500000	0.000202268	0.500000	2.97496e-07	
0.600000	0.000136529	0.600000	0.000201786	0.600000	0.000184591	0.600000	0.000184591	0.600000	0.000201531	0.600000	2.54511e-07	
0.700000	0.000131926	0.700000	0.000199526	0.700000	0.000181658	0.700000	0.000181658	0.700000	0.000199303	0.700000	2.22934e-07	
0.800000	0.000131386	0.800000	0.000195944	0.800000	0.000177214	0.800000	0.000177214	0.800000	0.000195746	0.800000	1.98691e-07	
0.900000	0.000130135	0.900000	0.000191669	0.900000	0.000172656	0.900000	0.000172656	0.900000	0.00019149	0.900000	1.79456e-07	
1.000000	0.000128647	1.000000	0.000187369	1.000000	0.000168279	1.000000	0.000168279	1.000000	0.000187205	1.000000	1.63798e-07	
1.250000	0.000123523	1.250000	0.000176488	1.250000	0.000158112	1.250000	0.000158112	1.250000	0.000176353	1.250000	1.34914e-07	
1.500000	0.000117043	1.500000	0.000164631	1.500000	0.000147761	1.500000	0.000147761	1.500000	0.000164516	1.500000	1.15068e-07	
1.750000	0.000110749	1.750000	0.000153916	1.750000	0.000139032	1.750000	0.000139032	1.750000	0.000153815	1.750000	1.00542e-07	
2.000000	0.000104763	2.000000	0.000144178	2.000000	0.000131434	2.000000	0.000131434	2.000000	0.000144088	2.000000	8.94238e-08	
2.250000	9.94682e-05	2.250000	0.000135603	2.250000	0.000124697	2.250000	0.000124697	2.250000	0.000135522	2.250000	8.06244e-08	
2.500000	9.84079e-05	2.500000	0.000127881	2.500000	0.000118655	2.500000	0.000118655	2.500000	0.000127808	2.500000	7.3477e-08	
3.000000	8.92158e-05	3.000000	0.000114731	3.000000	0.00010822	3.000000	0.00010822	3.000000	0.000114668	3.000000	6.25504e-08	
3.500000	8.16284e-05	3.500000	0.000104175	3.500000	9.95003e-05	3.500000	9.95003e-05	3.500000	0.00010412	3.500000	5.45709e-08	
4.000000	7.52748e-05	4.000000	9.53737e-05	4.000000	9.20954e-05	4.000000	9.20954e-05	4.000000	9.53252e-05	4.000000	4.84744e-08	
4.500000	6.98818e-05	4.500000	8.80115e-05	4.500000	8.57259e-05	4.500000	8.57259e-05	4.500000	8.79678e-05	4.500000	4.36566e-08	
5.000000	6.52481e-05	5.000000	8.17545e-05	5.000000	8.01879e-05	5.000000	8.01879e-05	5.000000	8.17147e-05	5.000000	3.97485e-08	
5.500000	6.12237e-05	5.500000	7.63569e-05	5.500000	7.53281e-05	5.500000	7.53281e-05	5.500000	7.63204e-05	5.500000	3.65113e-08	
6.000000	5.76954e-05	6.000000	7.16453e-05	6.000000	7.10289e-05	6.000000	7.10289e-05	6.000000	7.16115e-05	6.000000	3.37835e-08	
6.500000	5.45761e-05	6.500000	6.74897e-05	6.500000	6.71984e-05	6.500000	6.71984e-05	6.500000	6.74583e-05	6.500000	3.14522e-08	
7.000000	5.1798e-05	7.000000	6.37955e-05	7.000000	6.37638e-05	7.000000	6.37638e-05	7.000000	6.37661e-05	7.000000	2.94354e-08	
7.500000	4.93074e-05	7.500000	6.04904e-05	7.500000	6.06665e-05	7.500000	6.06665e-05	7.500000	6.04627e-05	7.500000	2.76728e-08	
8.000000	4.70614e-05	8.000000	5.75144e-05	8.000000	5.78593e-05	8.000000	5.78593e-05	8.000000	5.74883e-05	8.000000	2.61184e-08	
8.500000	4.50252e-05	8.500000	5.482e-05 	8.500000	5.53029e-05	8.500000	5.53029e-05	8.500000	5.47953e-05	8.500000	2.47369e-08	
9.000000	4.31704e-05	9.000000	5.23684e-05	9.000000	5.29653e-05	9.000000	5.29653e-05	9.000000	5.23449e-05	9.000000	2.35005e-08	
9.500000	4.14734e-05	9.500000	5.01278e-05	9.500000	5.08194e-05	9.500000	5.08194e-05	9.500000	5.01055e-05	9.500000	2.23872e-08	
10.000000	3.99146e-05	10.000000	4.60723e-05	10.000000	4.88426e-05	10.000000	4.88426e-05	10.000000	4.60509e-05	10.000000	2.13792e-08	
11.000000	3.71486e-05	11.000000	4.31631e-05	11.000000	4.52491e-05	11.000000	4.53228e-05	11.000000	4.31434e-05	11.000000	1.96238e-08	
12.000000	3.47682e-05	12.000000	4.0606e-05	12.000000	4.21659e-05	12.000000	4.22907e-05	12.000000	4.05878e-05	12.000000	1.81459e-08	
13.000000	3.26971e-05	13.000000	3.83428e-05	13.000000	3.94942e-05	13.000000	3.96539e-05	13.000000	3.83259e-05	13.000000	1.68838e-08	
14.000000	3.08779e-05	14.000000	3.63268e-05	14.000000	3.71584e-05	14.000000	3.7342e-05	14.000000	3.6311e-05	14.000000	1.57927e-08	
15.000000	2.92666e-05	15.000000	3.45204e-05	15.000000	3.51001e-05	15.000000	3.53004e-05	15.000000	3.45056e-05	15.000000	1.48397e-08	
16.000000	2.78291e-05	16.000000	3.28932e-05	16.000000	3.32754e-05	16.000000	3.34858e-05	16.000000	3.28792e-05	16.000000	1.39998e-08	
17.000000	2.65383e-05	17.000000	3.142e-05 	17.000000	3.16485e-05	17.000000	3.18638e-05	17.000000	3.14067e-05	17.000000	1.32537e-08	
18.000000	2.53726e-05	18.000000	3.00802e-05	18.000000	3.01891e-05	18.000000	3.04067e-05	18.000000	3.00676e-05	18.000000	1.25864e-08	
19.000000	2.43143e-05	19.000000	2.88566e-05	19.000000	2.88735e-05	19.000000	2.90916e-05	19.000000	2.88446e-05	19.000000	1.19857e-08	
20.000000	2.33491e-05	20.000000	2.77349e-05	20.000000	2.76827e-05	20.000000	2.78998e-05	20.000000	2.77234e-05	20.000000	1.14421e-08	
21.000000	2.24649e-05	21.000000	2.67028e-05	21.000000	2.6601e-05	21.000000	2.68157e-05	21.000000	2.66919e-05	21.000000	1.09477e-08	
22.000000	2.16519e-05	22.000000	2.57502e-05	22.000000	2.56152e-05	22.000000	2.58262e-05	22.000000	2.57397e-05	22.000000	1.0496e-08	
23.000000	2.09017e-05	23.000000	2.48682e-05	23.000000	2.47139e-05	23.000000	2.49202e-05	23.000000	2.48581e-05	23.000000	1.00816e-08	
24.000000	2.02071e-05	24.000000	2.40493e-05	24.000000	2.38873e-05	24.000000	2.40883e-05	24.000000	2.40396e-05	24.000000	9.70003e-09	
25.000000	1.95622e-05	25.000000	2.32869e-05	25.000000	2.31273e-05	25.000000	2.33225e-05	25.000000	2.32775e-05	25.000000	9.34749e-09	
27.000000	1.84008e-05	27.000000	2.19097e-05	27.000000	2.17796e-05	27.000000	2.19622e-05	27.000000	2.1901e-05	27.000000	8.71697e-09	
29.000000	1.73839e-05	29.000000	2.06997e-05	29.000000	2.06246e-05	29.000000	2.07941e-05	29.000000	2.06915e-05	29.000000	8.1693e-09	
31.000000	1.64856e-05	31.000000	1.9628e-05	31.000000	1.95865e-05	31.000000	1.97355e-05	31.000000	1.96203e-05	31.000000	7.68896e-09	
33.000000	1.56861e-05	33.000000	1.86721e-05	33.000000	1.86285e-05	33.000000	1.87537e-05	33.000000	1.86648e-05	33.000000	7.2641e-09	
35.000000	1.49696e-05	35.000000	1.78142e-05	35.000000	1.77691e-05	35.000000	1.78751e-05	35.000000	1.78073e-05	35.000000	6.88551e-09	
38.000000	1.40239e-05	38.000000	1.66802e-05	38.000000	1.66358e-05	38.000000	1.67175e-05	38.000000	1.66738e-05	38.000000	6.3889e-09	
41.000000	1.32049e-05	41.000000	1.56971e-05	41.000000	1.56538e-05	41.000000	1.57169e-05	41.000000	1.56911e-05	41.000000	5.96166e-09	
44.000000	1.24883e-05	44.000000	1.48363e-05	44.000000	1.47952e-05	44.000000	1.4843e-05	44.000000	1.48307e-05	44.000000	5.59003e-09	
47.000000	1.18557e-05	47.000000	1.40763e-05	47.000000	1.4037e-05	47.000000	1.40731e-05	47.000000	1.40711e-05	47.000000	5.26369e-09	
50.000000	1.1293e-05	50.000000	1.34003e-05	50.000000	1.33629e-05	50.000000	1.33893e-05	50.000000	1.33953e-05	50.000000	4.97474e-09	
55.000000	1.0481e-05	55.000000	1.24251e-05	55.000000	1.23901e-05	55.000000	1.24047e-05	55.000000	1.24206e-05	55.000000	4.56012e-09	
60.000000	9.79428e-06	60.000000	1.1601e-05	60.000000	1.157e-05 	60.000000	1.15742e-05	60.000000	1.15968e-05	60.000000	4.21159e-09	
65.000000	9.20537e-06	65.000000	1.08951e-05	65.000000	1.08667e-05	65.000000	1.08638e-05	65.000000	1.08911e-05	65.000000	3.91436e-09	
70.000000	8.69441e-06	70.000000	1.02834e-05	70.000000	1.02566e-05	70.000000	1.02489e-05	70.000000	1.02797e-05	70.000000	3.65775e-09	
75.000000	8.24663e-06	75.000000	9.74813e-06	75.000000	9.7238e-06	75.000000	9.71129e-06	75.000000	9.74469e-06	75.000000	3.43388e-09	
80.000000	7.85076e-06	80.000000	9.27568e-06	80.000000	9.25276e-06	80.000000	9.23713e-06	80.000000	9.27244e-06	80.000000	3.23677e-09	
85.000000	7.49809e-06	85.000000	8.85549e-06	85.000000	8.83388e-06	85.000000	8.81571e-06	85.000000	8.85243e-06	85.000000	3.06186e-09	
90.000000	7.18179e-06	90.000000	8.47928e-06	90.000000	8.45896e-06	90.000000	8.4386e-06	90.000000	8.47638e-06	90.000000	2.90555e-09	
95.000000	6.89639e-06	95.000000	8.14043e-06	95.000000	8.12135e-06	95.000000	8.09911e-06	95.000000	8.13766e-06	95.000000	2.76498e-09	
100.000000	6.63746e-06	100.000000	7.83358e-06	100.000000	7.81569e-06	100.000000	7.79182e-06	100.000000	7.83094e-06	100.000000	2.63787e-09	
105.000000	6.40142e-06	105.000000	7.55437e-06	105.000000	7.53771e-06	105.000000	7.51234e-06	105.000000	7.55185e-06	105.000000	2.52235e-09	
110.000000	6.18529e-06	110.000000	7.2992e-06	110.000000	7.2829e-06	110.000000	7.25701e-06	110.000000	7.29678e-06	110.000000	2.41688e-09	
115.000000	5.9866e-06	115.000000	7.06505e-06	115.000000	7.04966e-06	115.000000	7.02282e-06	115.000000	7.06273e-06	115.000000	2.32019e-09	
120.000000	5.80326e-06	120.000000	6.84943e-06	120.000000	6.83488e-06	120.000000	6.80724e-06	120.000000	6.8472e-06	120.000000	2.23121e-09	
125.000000	5.63353e-06	125.000000	6.65019e-06	125.000000	6.6359e-06	125.000000	6.60811e-06	125.000000	6.64804e-06	125.000000	2.14906e-09	
130.000000	5.4759e-06	130.000000	6.46553e-06	130.000000	6.45168e-06	130.000000	6.42362e-06	130.000000	6.46346e-06	130.000000	2.07295e-09	
135.000000	5.32909e-06	135.000000	6.29389e-06	135.000000	6.28103e-06	135.000000	6.2522e-06	135.000000	6.29188e-06	135.000000	2.00224e-09	
140.000000	5.19201e-06	140.000000	6.13393e-06	140.000000	6.12177e-06	140.000000	6.09251e-06	140.000000	6.13199e-06	140.000000	1.93638e-09	
145.000000	5.06368e-06	145.000000	5.98449e-06	145.000000	5.97269e-06	145.000000	5.94337e-06	145.000000	5.98261e-06	145.000000	1.87486e-09	
150.000000	4.94328e-06	150.000000	5.84456e-06	150.000000	5.83322e-06	150.000000	5.80378e-06	150.000000	5.84274e-06	150.000000	1.81727e-09	
155.000000	4.77368e-06	155.000000	5.71326e-06	155.000000	5.70239e-06	155.000000	5.67284e-06	155.000000	5.7115e-06	155.000000	1.76324e-09	
160.000000	4.6743e-06	160.000000	5.58981e-06	160.000000	5.57941e-06	160.000000	5.54978e-06	160.000000	5.5881e-06	160.000000	1.71245e-09	
165.000000	4.58058e-06	165.000000	5.47352e-06	165.000000	5.4636e-06	165.000000	5.4339e-06	165.000000	5.47186e-06	165.000000	1.66461e-09	
170.000000	4.49204e-06	170.000000	5.36379e-06	170.000000	5.35435e-06	170.000000	5.3246e-06	170.000000	5.36217e-06	170.000000	1.61946e-09	
175.000000	4.40825e-06	175.000000	5.26007e-06	175.000000	5.25113e-06	175.000000	5.22133e-06	175.000000	5.2585e-06	175.000000	1.57679e-09	
180.000000	4.32884e-06	180.000000	5.16189e-06	180.000000	5.15344e-06	180.000000	5.1236e-06	180.000000	5.16035e-06	180.000000	1.53638e-09	
185.000000	4.25348e-06	185.000000	5.0688e-06	185.000000	5.06084e-06	185.000000	5.03099e-06	185.000000	5.06731e-06	185.000000	1.49808e-09	
190.000000	4.18184e-06	190.000000	4.98043e-06	190.000000	4.97296e-06	190.000000	4.94311e-06	190.000000	4.97897e-06	190.000000	1.4617e-09	
195.000000	4.11367e-06	195.000000	4.89642e-06	195.000000	4.8895e-06	195.000000	4.85959e-06	195.000000	4.895e-06 	195.000000	1.42711e-09	
200.000000	4.04871e-06	200.000000	4.81646e-06	200.000000	4.81008e-06	200.000000	4.78014e-06	200.000000	4.81507e-06	200.000000	1.39418e-09	
210.000000	3.92756e-06	210.000000	4.66757e-06	210.000000	4.66173e-06	210.000000	4.63227e-06	210.000000	4.66624e-06	210.000000	1.33284e-09	
220.000000	3.81682e-06	220.000000	4.53178e-06	220.000000	4.52688e-06	220.000000	4.49753e-06	220.000000	4.5305e-06	220.000000	1.27685e-09	
230.000000	3.7152e-06	230.000000	4.40742e-06	230.000000	4.40359e-06	230.000000	4.37425e-06	230.000000	4.4062e-06	230.000000	1.22553e-09	
240.000000	3.62162e-06	240.000000	4.29313e-06	240.000000	4.29041e-06	240.000000	4.26104e-06	240.000000	4.29195e-06	240.000000	1.17831e-09	
250.000000	3.53514e-06	250.000000	4.18774e-06	250.000000	4.18579e-06	250.000000	4.15674e-06	250.000000	4.1866e-06	250.000000	1.13473e-09	
260.000000	3.45499e-06	260.000000	4.09025e-06	260.000000	4.08908e-06	260.000000	4.06035e-06	260.000000	4.08915e-06	260.000000	1.09436e-09	
270.000000	3.38049e-06	270.000000	3.99981e-06	270.000000	3.99979e-06	270.000000	3.97101e-06	270.000000	3.99876e-06	270.000000	1.05686e-09	
280.000000	3.31107e-06	280.000000	3.9157e-06	280.000000	3.91672e-06	280.000000	3.888e-06 	280.000000	3.91468e-06	280.000000	1.02194e-09	
290.000000	3.24623e-06	290.000000	3.83728e-06	290.000000	3.83903e-06	290.000000	3.81068e-06	290.000000	3.83629e-06	290.000000	9.89325e-10	
300.000000	3.18553e-06	300.000000	3.76401e-06	300.000000	3.76668e-06	300.000000	3.73849e-06	300.000000	3.76305e-06	300.000000	9.58801e-10	
310.000000	3.12858e-06	310.000000	3.69539e-06	310.000000	3.69908e-06	310.000000	3.67096e-06	310.000000	3.69446e-06	310.000000	9.30169e-10	
320.000000	3.07506e-06	320.000000	3.63101e-06	320.000000	3.63545e-06	320.000000	3.60765e-06	320.000000	3.6301e-06	320.000000	9.03255e-10	
330.000000	3.02466e-06	330.000000	3.57049e-06	330.000000	3.57583e-06	330.000000	3.5482e-06	330.000000	3.56961e-06	330.000000	8.77908e-10	
340.000000	2.97713e-06	340.000000	3.5135e-06	340.000000	3.51991e-06	340.000000	3.49228e-06	340.000000	3.51265e-06	340.000000	8.53994e-10	
350.000000	2.93222e-06	350.000000	3.45976e-06	350.000000	3.46721e-06	350.000000	3.43958e-06	350.000000	3.45893e-06	350.000000	8.31392e-10	
360.000000	2.88974e-06	360.000000	3.409e-06 	360.000000	3.41729e-06	360.000000	3.38985e-06	360.000000	3.40819e-06	360.000000	8.09997e-10	
370.000000	2.84949e-06	370.000000	3.36098e-06	370.000000	3.37002e-06	370.000000	3.34285e-06	370.000000	3.36019e-06	370.000000	7.89713e-10	
380.000000	2.81131e-06	380.000000	3.3155e-06	380.000000	3.32546e-06	380.000000	3.29838e-06	380.000000	3.31473e-06	380.000000	7.70455e-10	
390.000000	2.77504e-06	390.000000	3.27236e-06	390.000000	3.28329e-06	390.000000	3.25624e-06	390.000000	3.27161e-06	390.000000	7.52146e-10	
400.000000	2.74054e-06	400.000000	3.2314e-06	400.000000	3.24312e-06	400.000000	3.21626e-06	400.000000	3.23066e-06	400.000000	7.34717e-10	
410.000000	2.70771e-06	410.000000	3.19245e-06	410.000000	3.20492e-06	410.000000	3.17828e-06	410.000000	3.19174e-06	410.000000	7.18104e-10	
420.000000	2.67641e-06	420.000000	3.1554e-06	420.000000	3.16867e-06	420.000000	3.14217e-06	420.000000	3.15469e-06	420.000000	7.02252e-10	
430.000000	2.64655e-06	430.000000	3.12009e-06	430.000000	3.13423e-06	430.000000	3.1078e-06	430.000000	3.1194e-06	430.000000	6.87109e-10	
440.000000	2.61804e-06	440.000000	3.08642e-06	440.000000	3.10139e-06	440.000000	3.07506e-06	440.000000	3.08575e-06	440.000000	6.72627e-10	
450.000000	2.59079e-06	450.000000	3.05428e-06	450.000000	3.07002e-06	450.000000	3.04383e-06	450.000000	3.05363e-06	450.000000	6.58764e-10	
460.000000	2.56472e-06	460.000000	3.02358e-06	460.000000	3.04002e-06	460.000000	3.01402e-06	460.000000	3.02294e-06	460.000000	6.45481e-10	
470.000000	2.53977e-06	470.000000	2.99423e-06	470.000000	3.01136e-06	470.000000	2.98554e-06	470.000000	2.9936e-06	470.000000	6.32741e-10	
480.000000	2.51586e-06	480.000000	2.96614e-06	480.000000	2.98403e-06	480.000000	2.95831e-06	480.000000	2.96552e-06	480.000000	6.20511e-10	
490.000000	2.49293e-06	490.000000	2.93924e-06	490.000000	2.95796e-06	490.000000	2.93225e-06	490.000000	2.93863e-06	490.000000	6.08761e-10	
500.000000	2.47093e-06	500.000000	2.91346e-06	500.000000	2.93297e-06	500.000000	2.90729e-06	500.000000	2.91286e-06	500.000000	5.97463e-10	
520.000000	2.42951e-06	520.000000	2.865e-06 	520.000000	2.88584e-06	520.000000	2.86045e-06	520.000000	2.86443e-06	520.000000	5.76121e-10	
540.000000	2.39123e-06	540.000000	2.82032e-06	540.000000	2.84254e-06	540.000000	2.81731e-06	540.000000	2.81976e-06	540.000000	5.56301e-10	
560.000000	2.35577e-06	560.000000	2.77902e-06	560.000000	2.80267e-06	560.000000	2.77748e-06	560.000000	2.77848e-06	560.000000	5.37843e-10	
580.000000	2.32286e-06	580.000000	2.74076e-06	580.000000	2.76559e-06	580.000000	2.74063e-06	580.000000	2.74024e-06	580.000000	5.20611e-10	
600.000000	2.29224e-06	600.000000	2.70524e-06	600.000000	2.73114e-06	600.000000	2.70646e-06	600.000000	2.70473e-06	600.000000	5.04484e-10	
