*Energy (MeV/u)1	0 - [He-base] F.Hubert et al, AD&ND Tables 46(1990)1	Energy (MeV/u)2	1 - [H -base] J.F.Ziegler et al, Pergamon Press, NY (low energy)	Energy (MeV/u)3	2 - ATIMA 1.2  LS-theory (recommended for high energy)	Energy (MeV/u)4	3 - ATIMA 1.2  without LS-correction	Energy (MeV/u)5	4 - electrical component of [1] - J.F.Ziegler et al	Energy (MeV/u)6	5 - nuclear component of [1] - J.F.Ziegler et al	
0.001000	1.49865e-05	0.001000	1.56543e-05	0.001000	1.59165e-05	0.001000	1.59165e-05	0.001000	4.51143e-06	0.001000	1.11428e-05	
0.002000	1.52197e-05	0.002000	1.42787e-05	0.002000	1.5179e-05	0.002000	1.5179e-05	0.002000	5.8506e-06	0.002000	8.42807e-06	
0.005000	1.66194e-05	0.005000	1.34142e-05	0.005000	1.58386e-05	0.005000	1.58386e-05	0.005000	8.24951e-06	0.005000	5.16466e-06	
0.008000	1.81241e-05	0.008000	1.36914e-05	0.008000	1.73534e-05	0.008000	1.73534e-05	0.008000	9.8395e-06	0.008000	3.85188e-06	
0.010000	1.90652e-05	0.010000	1.40226e-05	0.010000	1.84195e-05	0.010000	1.84195e-05	0.010000	1.06983e-05	0.010000	3.32435e-06	
0.015000	2.24616e-05	0.015000	1.49701e-05	0.015000	2.10026e-05	0.015000	2.10026e-05	0.015000	1.24551e-05	0.015000	2.51494e-06	
0.020000	2.57493e-05	0.020000	1.59027e-05	0.020000	2.33764e-05	0.020000	2.33764e-05	0.020000	1.3874e-05	0.020000	2.0287e-06	
0.025000	2.95098e-05	0.025000	1.69552e-05	0.025000	2.56011e-05	0.025000	2.56011e-05	0.025000	1.52326e-05	0.025000	1.72267e-06	
0.030000	3.29588e-05	0.030000	2.11267e-05	0.030000	2.8411e-05	0.030000	2.8411e-05	0.030000	1.96232e-05	0.030000	1.50345e-06	
0.035000	3.60243e-05	0.035000	2.53871e-05	0.035000	3.12081e-05	0.035000	3.12081e-05	0.035000	2.40493e-05	0.035000	1.33788e-06	
0.040000	3.86591e-05	0.040000	2.95205e-05	0.040000	3.39791e-05	0.040000	3.39791e-05	0.040000	2.83126e-05	0.040000	1.20793e-06	
0.045000	4.08143e-05	0.045000	3.3466e-05	0.045000	3.67138e-05	0.045000	3.67138e-05	0.045000	3.2363e-05	0.045000	1.10296e-06	
0.050000	4.2146e-05	0.050000	3.72195e-05	0.050000	3.94037e-05	0.050000	3.94037e-05	0.050000	3.62033e-05	0.050000	1.0162e-06	
0.055000	4.44021e-05	0.055000	4.0801e-05	0.055000	4.20419e-05	0.055000	4.20419e-05	0.055000	3.98578e-05	0.055000	9.4318e-07	
0.060000	4.63984e-05	0.060000	4.38881e-05	0.060000	4.46226e-05	0.060000	4.46226e-05	0.060000	4.30073e-05	0.060000	8.80783e-07	
0.070000	4.96579e-05	0.070000	4.93222e-05	0.070000	4.95917e-05	0.070000	4.95917e-05	0.070000	4.85427e-05	0.070000	7.79558e-07	
0.080000	5.311e-05 	0.080000	5.43648e-05	0.080000	5.42802e-05	0.080000	5.42802e-05	0.080000	5.36641e-05	0.080000	7.00759e-07	
0.090000	5.5944e-05	0.090000	5.90414e-05	0.090000	5.86681e-05	0.090000	5.86681e-05	0.090000	5.84039e-05	0.090000	6.37517e-07	
0.100000	5.81538e-05	0.100000	6.33559e-05	0.100000	6.27441e-05	0.100000	6.27441e-05	0.100000	6.27704e-05	0.100000	5.85536e-07	
0.120000	5.96513e-05	0.120000	7.02252e-05	0.120000	6.99531e-05	0.120000	6.99531e-05	0.120000	6.97203e-05	0.120000	5.0492e-07	
0.140000	6.06605e-05	0.140000	7.55005e-05	0.140000	7.5946e-05	0.140000	7.5946e-05	0.140000	7.50555e-05	0.140000	4.45089e-07	
0.160000	6.15708e-05	0.160000	7.99144e-05	0.160000	8.08226e-05	0.160000	8.08226e-05	0.160000	7.95157e-05	0.160000	3.98776e-07	
0.180000	6.25432e-05	0.180000	8.35991e-05	0.180000	8.47137e-05	0.180000	8.47137e-05	0.180000	8.32374e-05	0.180000	3.61777e-07	
0.200000	6.40784e-05	0.200000	8.69652e-05	0.200000	8.77594e-05	0.200000	8.77594e-05	0.200000	8.66338e-05	0.200000	3.31485e-07	
0.250000	6.57914e-05	0.250000	9.39708e-05	0.250000	9.25396e-05	0.250000	9.25396e-05	0.250000	9.36957e-05	0.250000	2.75159e-07	
0.300000	6.73167e-05	0.300000	9.81699e-05	0.300000	9.46072e-05	0.300000	9.46072e-05	0.300000	9.79338e-05	0.300000	2.36089e-07	
0.350000	6.89645e-05	0.350000	0.000101009	0.350000	9.51336e-05	0.350000	9.51336e-05	0.350000	0.000100801	0.350000	2.07282e-07	
0.400000	7.03519e-05	0.400000	0.000102996	0.400000	9.52146e-05	0.400000	9.52146e-05	0.400000	0.000102811	0.400000	1.85101e-07	
0.450000	7.1316e-05	0.450000	0.00010396	0.450000	9.58256e-05	0.450000	9.58256e-05	0.450000	0.000103793	0.450000	1.67458e-07	
0.500000	7.19315e-05	0.500000	0.000104223	0.500000	9.58594e-05	0.500000	9.58594e-05	0.500000	0.00010407	0.500000	1.53066e-07	
0.600000	7.02462e-05	0.600000	0.000103822	0.600000	9.4975e-05	0.600000	9.4975e-05	0.600000	0.000103691	0.600000	1.3095e-07	
0.700000	6.78782e-05	0.700000	0.000102659	0.700000	9.34662e-05	0.700000	9.34662e-05	0.700000	0.000102545	0.700000	1.14703e-07	
0.800000	6.76001e-05	0.800000	0.000100816	0.800000	9.11794e-05	0.800000	9.11794e-05	0.800000	0.000100714	0.800000	1.0223e-07	
0.900000	6.69566e-05	0.900000	9.86169e-05	0.900000	8.88344e-05	0.900000	8.88344e-05	0.900000	9.85245e-05	0.900000	9.23328e-08	
1.000000	6.61908e-05	1.000000	9.64044e-05	1.000000	8.65822e-05	1.000000	8.65822e-05	1.000000	9.63201e-05	1.000000	8.42766e-08	
1.250000	6.35544e-05	1.250000	9.08057e-05	1.250000	8.13511e-05	1.250000	8.13511e-05	1.250000	9.07363e-05	1.250000	6.94155e-08	
1.500000	6.02203e-05	1.500000	8.47053e-05	1.500000	7.60254e-05	1.500000	7.60254e-05	1.500000	8.46461e-05	1.500000	5.92041e-08	
1.750000	5.6982e-05	1.750000	7.91923e-05	1.750000	7.15343e-05	1.750000	7.15343e-05	1.750000	7.91405e-05	1.750000	5.17304e-08	
2.000000	5.39024e-05	2.000000	7.41817e-05	2.000000	6.76248e-05	2.000000	6.76248e-05	2.000000	7.41357e-05	2.000000	4.601e-08 	
2.250000	5.1178e-05	2.250000	6.97698e-05	2.250000	6.41587e-05	2.250000	6.41587e-05	2.250000	6.97283e-05	2.250000	4.14826e-08	
2.500000	5.06324e-05	2.500000	6.57969e-05	2.500000	6.10498e-05	2.500000	6.10498e-05	2.500000	6.57591e-05	2.500000	3.78051e-08	
3.000000	4.5903e-05	3.000000	5.90308e-05	3.000000	5.56808e-05	3.000000	5.56808e-05	3.000000	5.89986e-05	3.000000	3.21832e-08	
3.500000	4.19991e-05	3.500000	5.35995e-05	3.500000	5.11945e-05	3.500000	5.11945e-05	3.500000	5.35714e-05	3.500000	2.80776e-08	
4.000000	3.87301e-05	4.000000	4.90713e-05	4.000000	4.73846e-05	4.000000	4.73846e-05	4.000000	4.90463e-05	4.000000	2.49408e-08	
4.500000	3.59553e-05	4.500000	4.52833e-05	4.500000	4.41074e-05	4.500000	4.41074e-05	4.500000	4.52609e-05	4.500000	2.2462e-08	
5.000000	3.35712e-05	5.000000	4.2064e-05	5.000000	4.1258e-05	5.000000	4.1258e-05	5.000000	4.20435e-05	5.000000	2.04512e-08	
5.500000	3.15006e-05	5.500000	3.92869e-05	5.500000	3.87575e-05	5.500000	3.87575e-05	5.500000	3.92681e-05	5.500000	1.87856e-08	
6.000000	2.96852e-05	6.000000	3.68626e-05	6.000000	3.65455e-05	6.000000	3.65455e-05	6.000000	3.68453e-05	6.000000	1.73822e-08	
6.500000	2.80803e-05	6.500000	3.47245e-05	6.500000	3.45746e-05	6.500000	3.45746e-05	6.500000	3.47084e-05	6.500000	1.61826e-08	
7.000000	2.66509e-05	7.000000	3.28238e-05	7.000000	3.28075e-05	7.000000	3.28075e-05	7.000000	3.28087e-05	7.000000	1.5145e-08	
7.500000	2.53695e-05	7.500000	3.11233e-05	7.500000	3.12139e-05	7.500000	3.12139e-05	7.500000	3.1109e-05	7.500000	1.42381e-08	
8.000000	2.42138e-05	8.000000	2.95921e-05	8.000000	2.97695e-05	8.000000	2.97695e-05	8.000000	2.95787e-05	8.000000	1.34383e-08	
8.500000	2.31662e-05	8.500000	2.82058e-05	8.500000	2.84542e-05	8.500000	2.84542e-05	8.500000	2.8193e-05	8.500000	1.27275e-08	
9.000000	2.22118e-05	9.000000	2.69444e-05	9.000000	2.72515e-05	9.000000	2.72515e-05	9.000000	2.69323e-05	9.000000	1.20914e-08	
9.500000	2.13387e-05	9.500000	2.57916e-05	9.500000	2.61474e-05	9.500000	2.61474e-05	9.500000	2.57801e-05	9.500000	1.15186e-08	
10.000000	2.05367e-05	10.000000	2.37049e-05	10.000000	2.51303e-05	10.000000	2.51303e-05	10.000000	2.36939e-05	10.000000	1.1e-08   	
11.000000	1.91136e-05	11.000000	2.22081e-05	11.000000	2.32814e-05	11.000000	2.33193e-05	11.000000	2.2198e-05	11.000000	1.00968e-08	
12.000000	1.78888e-05	12.000000	2.08924e-05	12.000000	2.1695e-05	12.000000	2.17592e-05	12.000000	2.08831e-05	12.000000	9.33636e-09	
13.000000	1.68232e-05	13.000000	1.9728e-05	13.000000	2.03204e-05	13.000000	2.04026e-05	13.000000	1.97193e-05	13.000000	8.68696e-09	
14.000000	1.58872e-05	14.000000	1.86907e-05	14.000000	1.91186e-05	14.000000	1.92131e-05	14.000000	1.86826e-05	14.000000	8.1256e-09	
15.000000	1.50581e-05	15.000000	1.77613e-05	15.000000	1.80596e-05	15.000000	1.81626e-05	15.000000	1.77537e-05	15.000000	7.63528e-09	
16.000000	1.43185e-05	16.000000	1.69241e-05	16.000000	1.71207e-05	16.000000	1.7229e-05	16.000000	1.69169e-05	16.000000	7.20313e-09	
17.000000	1.36544e-05	17.000000	1.61661e-05	17.000000	1.62837e-05	17.000000	1.63945e-05	17.000000	1.61592e-05	17.000000	6.81926e-09	
18.000000	1.30546e-05	18.000000	1.54767e-05	18.000000	1.55328e-05	18.000000	1.56447e-05	18.000000	1.54702e-05	18.000000	6.47589e-09	
19.000000	1.25101e-05	19.000000	1.48472e-05	19.000000	1.48559e-05	19.000000	1.49681e-05	19.000000	1.4841e-05	19.000000	6.16684e-09	
20.000000	1.20135e-05	20.000000	1.427e-05 	20.000000	1.42432e-05	20.000000	1.43549e-05	20.000000	1.42641e-05	20.000000	5.88715e-09	
21.000000	1.15586e-05	21.000000	1.3739e-05	21.000000	1.36867e-05	21.000000	1.37971e-05	21.000000	1.37334e-05	21.000000	5.63276e-09	
22.000000	1.11403e-05	22.000000	1.32489e-05	22.000000	1.31794e-05	22.000000	1.3288e-05	22.000000	1.32435e-05	22.000000	5.40035e-09	
23.000000	1.07543e-05	23.000000	1.27951e-05	23.000000	1.27157e-05	23.000000	1.28218e-05	23.000000	1.27899e-05	23.000000	5.18714e-09	
24.000000	1.03969e-05	24.000000	1.23737e-05	24.000000	1.22904e-05	24.000000	1.23938e-05	24.000000	1.23687e-05	24.000000	4.99082e-09	
25.000000	1.0065e-05	25.000000	1.19815e-05	25.000000	1.18994e-05	25.000000	1.19998e-05	25.000000	1.19767e-05	25.000000	4.80943e-09	
27.000000	9.46753e-06	27.000000	1.12729e-05	27.000000	1.1206e-05	27.000000	1.12999e-05	27.000000	1.12684e-05	27.000000	4.48502e-09	
29.000000	8.9443e-06	29.000000	1.06503e-05	29.000000	1.06117e-05	29.000000	1.06989e-05	29.000000	1.06461e-05	29.000000	4.20324e-09	
31.000000	8.48213e-06	31.000000	1.00989e-05	31.000000	1.00776e-05	31.000000	1.01542e-05	31.000000	1.00949e-05	31.000000	3.95609e-09	
33.000000	8.07075e-06	33.000000	9.60708e-06	33.000000	9.58466e-06	33.000000	9.64907e-06	33.000000	9.60335e-06	33.000000	3.73749e-09	
35.000000	7.7021e-06	35.000000	9.16567e-06	35.000000	9.14248e-06	35.000000	9.19703e-06	35.000000	9.16213e-06	35.000000	3.5427e-09	
38.000000	7.21552e-06	38.000000	8.58224e-06	38.000000	8.5594e-06	38.000000	8.60141e-06	38.000000	8.57895e-06	38.000000	3.28719e-09	
41.000000	6.79412e-06	41.000000	8.07639e-06	41.000000	8.05411e-06	41.000000	8.08658e-06	41.000000	8.07332e-06	41.000000	3.06737e-09	
44.000000	6.42541e-06	44.000000	7.63352e-06	44.000000	7.61238e-06	44.000000	7.63698e-06	44.000000	7.63065e-06	44.000000	2.87616e-09	
47.000000	6.09995e-06	47.000000	7.2425e-06	47.000000	7.22225e-06	47.000000	7.24081e-06	47.000000	7.23979e-06	47.000000	2.70825e-09	
50.000000	5.81042e-06	50.000000	6.89465e-06	50.000000	6.87543e-06	50.000000	6.88899e-06	50.000000	6.89209e-06	50.000000	2.55958e-09	
55.000000	5.39266e-06	55.000000	6.39292e-06	55.000000	6.37489e-06	55.000000	6.38244e-06	55.000000	6.39057e-06	55.000000	2.34625e-09	
60.000000	5.03932e-06	60.000000	5.96889e-06	60.000000	5.95297e-06	60.000000	5.95511e-06	60.000000	5.96673e-06	60.000000	2.16693e-09	
65.000000	4.73631e-06	65.000000	5.60568e-06	65.000000	5.5911e-06	65.000000	5.58958e-06	65.000000	5.60367e-06	65.000000	2.014e-09 	
70.000000	4.47342e-06	70.000000	5.29097e-06	70.000000	5.2772e-06	70.000000	5.27321e-06	70.000000	5.28909e-06	70.000000	1.88197e-09	
75.000000	4.24302e-06	75.000000	5.01557e-06	75.000000	5.00305e-06	75.000000	4.99661e-06	75.000000	5.0138e-06	75.000000	1.76678e-09	
80.000000	4.03934e-06	80.000000	4.77248e-06	80.000000	4.76069e-06	80.000000	4.75265e-06	80.000000	4.77082e-06	80.000000	1.66537e-09	
85.000000	3.85789e-06	85.000000	4.55629e-06	85.000000	4.54517e-06	85.000000	4.53582e-06	85.000000	4.55472e-06	85.000000	1.57538e-09	
90.000000	3.69515e-06	90.000000	4.36273e-06	90.000000	4.35227e-06	90.000000	4.34179e-06	90.000000	4.36123e-06	90.000000	1.49495e-09	
95.000000	3.5483e-06	95.000000	4.18838e-06	95.000000	4.17856e-06	95.000000	4.16712e-06	95.000000	4.18696e-06	95.000000	1.42263e-09	
100.000000	3.41508e-06	100.000000	4.0305e-06	100.000000	4.0213e-06	100.000000	4.00902e-06	100.000000	4.02915e-06	100.000000	1.35723e-09	
105.000000	3.29363e-06	105.000000	3.88684e-06	105.000000	3.87827e-06	105.000000	3.86522e-06	105.000000	3.88555e-06	105.000000	1.29779e-09	
110.000000	3.18243e-06	110.000000	3.75555e-06	110.000000	3.74717e-06	110.000000	3.73385e-06	110.000000	3.75431e-06	110.000000	1.24352e-09	
115.000000	3.0802e-06	115.000000	3.63508e-06	115.000000	3.62716e-06	115.000000	3.61336e-06	115.000000	3.63389e-06	115.000000	1.19377e-09	
120.000000	2.98587e-06	120.000000	3.52414e-06	120.000000	3.51666e-06	120.000000	3.50243e-06	120.000000	3.52299e-06	120.000000	1.14799e-09	
125.000000	2.89854e-06	125.000000	3.42163e-06	125.000000	3.41428e-06	125.000000	3.39998e-06	125.000000	3.42052e-06	125.000000	1.10572e-09	
130.000000	2.81744e-06	130.000000	3.32662e-06	130.000000	3.31949e-06	130.000000	3.30506e-06	130.000000	3.32555e-06	130.000000	1.06657e-09	
135.000000	2.7419e-06	135.000000	3.23831e-06	135.000000	3.23169e-06	135.000000	3.21686e-06	135.000000	3.23728e-06	135.000000	1.03019e-09	
140.000000	2.67137e-06	140.000000	3.156e-06 	140.000000	3.14975e-06	140.000000	3.13469e-06	140.000000	3.15501e-06	140.000000	9.96296e-10	
145.000000	2.60535e-06	145.000000	3.07912e-06	145.000000	3.07304e-06	145.000000	3.05796e-06	145.000000	3.07815e-06	145.000000	9.64644e-10	
150.000000	2.5434e-06	150.000000	3.00712e-06	150.000000	3.00129e-06	150.000000	2.98614e-06	150.000000	3.00619e-06	150.000000	9.35014e-10	
155.000000	2.45614e-06	155.000000	2.93956e-06	155.000000	2.93397e-06	155.000000	2.91877e-06	155.000000	2.93866e-06	155.000000	9.07216e-10	
160.000000	2.405e-06 	160.000000	2.87605e-06	160.000000	2.8707e-06	160.000000	2.85545e-06	160.000000	2.87517e-06	160.000000	8.81082e-10	
165.000000	2.35678e-06	165.000000	2.81622e-06	165.000000	2.81111e-06	165.000000	2.79583e-06	165.000000	2.81536e-06	165.000000	8.56466e-10	
170.000000	2.31123e-06	170.000000	2.75976e-06	170.000000	2.7549e-06	170.000000	2.73959e-06	170.000000	2.75892e-06	170.000000	8.33238e-10	
175.000000	2.26812e-06	175.000000	2.70639e-06	175.000000	2.70179e-06	175.000000	2.68646e-06	175.000000	2.70558e-06	175.000000	8.11281e-10	
180.000000	2.22726e-06	180.000000	2.65587e-06	180.000000	2.65153e-06	180.000000	2.63618e-06	180.000000	2.65508e-06	180.000000	7.90494e-10	
185.000000	2.18848e-06	185.000000	2.60798e-06	185.000000	2.60389e-06	185.000000	2.58853e-06	185.000000	2.60721e-06	185.000000	7.70784e-10	
190.000000	2.15163e-06	190.000000	2.56251e-06	190.000000	2.55867e-06	190.000000	2.54331e-06	190.000000	2.56176e-06	190.000000	7.52068e-10	
195.000000	2.11655e-06	195.000000	2.51929e-06	195.000000	2.51573e-06	195.000000	2.50034e-06	195.000000	2.51855e-06	195.000000	7.34273e-10	
200.000000	2.08313e-06	200.000000	2.47815e-06	200.000000	2.47486e-06	200.000000	2.45946e-06	200.000000	2.47743e-06	200.000000	7.1733e-10	
210.000000	2.02079e-06	210.000000	2.40154e-06	210.000000	2.39854e-06	210.000000	2.38338e-06	210.000000	2.40086e-06	210.000000	6.85767e-10	
220.000000	1.96382e-06	220.000000	2.33167e-06	220.000000	2.32915e-06	220.000000	2.31405e-06	220.000000	2.33101e-06	220.000000	6.56958e-10	
230.000000	1.91153e-06	230.000000	2.26769e-06	230.000000	2.26572e-06	230.000000	2.25062e-06	230.000000	2.26706e-06	230.000000	6.30553e-10	
240.000000	1.86338e-06	240.000000	2.20889e-06	240.000000	2.20748e-06	240.000000	2.19237e-06	240.000000	2.20828e-06	240.000000	6.06261e-10	
250.000000	1.81888e-06	250.000000	2.15466e-06	250.000000	2.15366e-06	250.000000	2.13871e-06	250.000000	2.15407e-06	250.000000	5.83835e-10	
260.000000	1.77765e-06	260.000000	2.1045e-06	260.000000	2.1039e-06	260.000000	2.08911e-06	260.000000	2.10393e-06	260.000000	5.63065e-10	
270.000000	1.73932e-06	270.000000	2.05797e-06	270.000000	2.05795e-06	270.000000	2.04315e-06	270.000000	2.05742e-06	270.000000	5.43772e-10	
280.000000	1.7036e-06	280.000000	2.01469e-06	280.000000	2.01522e-06	280.000000	2.00044e-06	280.000000	2.01417e-06	280.000000	5.25803e-10	
290.000000	1.67024e-06	290.000000	1.97434e-06	290.000000	1.97524e-06	290.000000	1.96065e-06	290.000000	1.97383e-06	290.000000	5.09024e-10	
300.000000	1.639e-06 	300.000000	1.93664e-06	300.000000	1.93802e-06	300.000000	1.92351e-06	300.000000	1.93615e-06	300.000000	4.93319e-10	
310.000000	1.60971e-06	310.000000	1.90134e-06	310.000000	1.90324e-06	310.000000	1.88877e-06	310.000000	1.90086e-06	310.000000	4.78587e-10	
320.000000	1.58217e-06	320.000000	1.86821e-06	320.000000	1.8705e-06	320.000000	1.85619e-06	320.000000	1.86775e-06	320.000000	4.64739e-10	
330.000000	1.55624e-06	330.000000	1.83707e-06	330.000000	1.83982e-06	330.000000	1.82561e-06	330.000000	1.83662e-06	330.000000	4.51698e-10	
340.000000	1.53178e-06	340.000000	1.80775e-06	340.000000	1.81105e-06	340.000000	1.79683e-06	340.000000	1.80731e-06	340.000000	4.39394e-10	
350.000000	1.50868e-06	350.000000	1.7801e-06	350.000000	1.78393e-06	350.000000	1.76972e-06	350.000000	1.77968e-06	350.000000	4.27765e-10	
360.000000	1.48682e-06	360.000000	1.75398e-06	360.000000	1.75825e-06	360.000000	1.74413e-06	360.000000	1.75357e-06	360.000000	4.16757e-10	
370.000000	1.46611e-06	370.000000	1.72928e-06	370.000000	1.73393e-06	370.000000	1.71995e-06	370.000000	1.72887e-06	370.000000	4.0632e-10	
380.000000	1.44646e-06	380.000000	1.70588e-06	380.000000	1.711e-06 	380.000000	1.69707e-06	380.000000	1.70548e-06	380.000000	3.96411e-10	
390.000000	1.4278e-06	390.000000	1.68368e-06	390.000000	1.6893e-06	390.000000	1.67539e-06	390.000000	1.68329e-06	390.000000	3.86991e-10	
400.000000	1.41005e-06	400.000000	1.6626e-06	400.000000	1.66864e-06	400.000000	1.65481e-06	400.000000	1.66223e-06	400.000000	3.78023e-10	
410.000000	1.39316e-06	410.000000	1.64257e-06	410.000000	1.64898e-06	410.000000	1.63528e-06	410.000000	1.6422e-06	410.000000	3.69476e-10	
420.000000	1.37706e-06	420.000000	1.6235e-06	420.000000	1.63033e-06	420.000000	1.6167e-06	420.000000	1.62314e-06	420.000000	3.6132e-10	
430.000000	1.36169e-06	430.000000	1.60534e-06	430.000000	1.61261e-06	430.000000	1.59901e-06	430.000000	1.60498e-06	430.000000	3.53529e-10	
440.000000	1.34702e-06	440.000000	1.58801e-06	440.000000	1.59571e-06	440.000000	1.58217e-06	440.000000	1.58767e-06	440.000000	3.46078e-10	
450.000000	1.333e-06 	450.000000	1.57148e-06	450.000000	1.57958e-06	450.000000	1.5661e-06	450.000000	1.57114e-06	450.000000	3.38945e-10	
460.000000	1.31959e-06	460.000000	1.55568e-06	460.000000	1.56414e-06	460.000000	1.55076e-06	460.000000	1.55535e-06	460.000000	3.3211e-10	
470.000000	1.30675e-06	470.000000	1.54058e-06	470.000000	1.54939e-06	470.000000	1.53611e-06	470.000000	1.54025e-06	470.000000	3.25555e-10	
480.000000	1.29445e-06	480.000000	1.52613e-06	480.000000	1.53533e-06	480.000000	1.5221e-06	480.000000	1.52581e-06	480.000000	3.19263e-10	
490.000000	1.28265e-06	490.000000	1.51228e-06	490.000000	1.52192e-06	490.000000	1.50869e-06	490.000000	1.51197e-06	490.000000	3.13217e-10	
500.000000	1.27133e-06	500.000000	1.49902e-06	500.000000	1.50906e-06	500.000000	1.49585e-06	500.000000	1.49871e-06	500.000000	3.07404e-10	
520.000000	1.25002e-06	520.000000	1.47409e-06	520.000000	1.48481e-06	520.000000	1.47174e-06	520.000000	1.47379e-06	520.000000	2.96424e-10	
540.000000	1.23033e-06	540.000000	1.4511e-06	540.000000	1.46253e-06	540.000000	1.44955e-06	540.000000	1.45081e-06	540.000000	2.86226e-10	
560.000000	1.21208e-06	560.000000	1.42985e-06	560.000000	1.44202e-06	560.000000	1.42906e-06	560.000000	1.42957e-06	560.000000	2.76729e-10	
580.000000	1.19515e-06	580.000000	1.41016e-06	580.000000	1.42294e-06	580.000000	1.4101e-06	580.000000	1.4099e-06	580.000000	2.67862e-10	
600.000000	1.17939e-06	600.000000	1.39189e-06	600.000000	1.40522e-06	600.000000	1.39252e-06	600.000000	1.39163e-06	600.000000	2.59565e-10	
