*Energy (MeV/u)1	0 - [He-base] F.Hubert et al. AD&ND Tables 46(1990)1	Energy (MeV/u)2	1 - [H -base] J.F.Ziegler et al.Pergamon Press.NY(low energy)	Energy (MeV/u)3	2 - ATIMA 1.2 LS-theory (recommended for high energy)	Energy (MeV/u)4	3 - ATIMA 1.2 without LS-correction	Energy (MeV/u)5	4 - ATIMA 1.4 H.Weick. improved mean charge formula for HI	Energy (MeV/u)6	5 - electrical component of [1] - J.F.Ziegler et al	Energy (MeV/u)7	6 - nuclear component of [1] - J.F.Ziegler et al	
0.001000	0.397921  	0.001000	0.191711  	0.001000	0.179928  	0.001000	0.179928  	0.001000	0.179882  	0.001000	0.107179  	0.001000	0.0845319 	
0.002000	0.440903  	0.002000	0.216966  	0.002000	0.203421  	0.002000	0.203421  	0.002000	0.20339   	0.002000	0.148455  	0.002000	0.0685111 	
0.005000	0.543554  	0.005000	0.273618  	0.005000	0.258564  	0.005000	0.258564  	0.005000	0.258549  	0.005000	0.228364  	0.005000	0.0452544 	
0.008000	0.622798  	0.008000	0.319596  	0.008000	0.304598  	0.008000	0.304598  	0.008000	0.304588  	0.008000	0.284816  	0.008000	0.0347803 	
0.010000	0.667788  	0.010000	0.3467    	0.010000	0.332056  	0.010000	0.332056  	0.010000	0.332048  	0.010000	0.316309  	0.010000	0.0303916 	
0.015000	0.780364  	0.015000	0.406166  	0.015000	0.392914  	0.015000	0.392914  	0.015000	0.392909  	0.015000	0.382714  	0.015000	0.023452  	
0.020000	0.869382  	0.020000	0.46281   	0.020000	0.458429  	0.020000	0.458429  	0.020000	0.458425  	0.020000	0.443487  	0.020000	0.019323  	
0.025000	0.966908  	0.025000	0.520378  	0.025000	0.524706  	0.025000	0.524706  	0.025000	0.524703  	0.025000	0.503831  	0.025000	0.0165466 	
0.030000	1.04897   	0.030000	0.572978  	0.030000	0.570975  	0.030000	0.570975  	0.030000	0.570972  	0.030000	0.558576  	0.030000	0.0144017 	
0.035000	1.10724   	0.035000	0.62062   	0.035000	0.613013  	0.035000	0.613013  	0.035000	0.61301   	0.035000	0.607735  	0.035000	0.0128853 	
0.040000	1.15052   	0.040000	0.658376  	0.040000	0.650967  	0.040000	0.650967  	0.040000	0.650965  	0.040000	0.646691  	0.040000	0.0116846 	
0.045000	1.18067   	0.045000	0.69265   	0.045000	0.685133  	0.045000	0.685133  	0.045000	0.685131  	0.045000	0.681943  	0.045000	0.0107078 	
0.050000	1.19873   	0.050000	0.723873  	0.050000	0.715808  	0.050000	0.715808  	0.050000	0.715806  	0.050000	0.713977  	0.050000	0.00989581	
0.055000	1.2436    	0.055000	0.749158  	0.055000	0.743288  	0.055000	0.743288  	0.055000	0.743287  	0.055000	0.739949  	0.055000	0.00920903	
0.060000	1.28107   	0.060000	0.772013  	0.060000	0.76787   	0.060000	0.76787   	0.060000	0.767869  	0.060000	0.763393  	0.060000	0.00861972	
0.070000	1.33625   	0.070000	0.81188   	0.070000	0.809474  	0.070000	0.809474  	0.070000	0.809473  	0.070000	0.804221  	0.070000	0.00765879	
0.080000	1.39749   	0.080000	0.844504  	0.080000	0.842742  	0.080000	0.842742  	0.080000	0.842741  	0.080000	0.837598  	0.080000	0.00690645	
0.090000	1.44318   	0.090000	0.873079  	0.090000	0.869496  	0.090000	0.869496  	0.090000	0.869495  	0.090000	0.86678   	0.090000	0.0062998 	
0.100000	1.47746   	0.100000	0.898895  	0.100000	0.891219  	0.100000	0.891219  	0.100000	0.891219  	0.100000	0.893096  	0.100000	0.00579922	
0.120000	1.48935   	0.120000	0.922832  	0.120000	0.923959  	0.120000	0.923959  	0.120000	0.923959  	0.120000	0.917813  	0.120000	0.00501929	
0.140000	1.49756   	0.140000	0.94763   	0.140000	0.947289  	0.140000	0.947289  	0.140000	0.947289  	0.140000	0.943193  	0.140000	0.00443748	
0.160000	1.50108   	0.160000	0.968218  	0.160000	0.964726  	0.160000	0.964726  	0.160000	0.964726  	0.160000	0.964233  	0.160000	0.00398529	
0.180000	1.5048    	0.180000	0.985145  	0.180000	0.978197  	0.180000	0.978197  	0.180000	0.978197  	0.180000	0.981522  	0.180000	0.00362285	
0.200000	1.51038   	0.200000	0.999164  	0.200000	0.988782  	0.200000	0.988782  	0.200000	0.988782  	0.200000	0.995839  	0.200000	0.00332527	
0.250000	1.49256   	0.250000	1.01527   	0.250000	1.00628   	0.250000	1.00628   	0.250000	1.00628   	0.250000	1.0125    	0.250000	0.00276984	
0.300000	1.48675   	0.300000	1.02372   	0.300000	1.01467   	0.300000	1.01467   	0.300000	1.01467   	0.300000	1.02134   	0.300000	0.00238284	
0.350000	1.48263   	0.350000	1.02527   	0.350000	1.01733   	0.350000	1.01733   	0.350000	1.01733   	0.350000	1.02317   	0.350000	0.00209653	
0.400000	1.48987   	0.400000	1.02912   	0.400000	1.02378   	0.400000	1.02378   	0.400000	1.02378   	0.400000	1.02725   	0.400000	0.00187546	
0.450000	1.49288   	0.450000	1.02868   	0.450000	1.02385   	0.450000	1.02385   	0.450000	1.02385   	0.450000	1.02698   	0.450000	0.00169922	
0.500000	1.49099   	0.500000	1.02274   	0.500000	1.01943   	0.500000	1.01943   	0.500000	1.01943   	0.500000	1.02119   	0.500000	0.00155518	
0.600000	1.4303    	0.600000	1.02135   	0.600000	1.00093   	0.600000	1.00093   	0.600000	1.00093   	0.600000	1.02001   	0.600000	0.0013333 	
0.700000	1.34303   	0.700000	0.997505  	0.700000	0.974707  	0.700000	0.974707  	0.700000	0.974708  	0.700000	0.996335  	0.700000	0.00116988	
0.800000	1.29303   	0.800000	0.97393   	0.800000	0.946659  	0.800000	0.946659  	0.800000	0.94666   	0.800000	0.972886  	0.800000	0.00104414	
0.900000	1.24334   	0.900000	0.949319  	0.900000	0.918236  	0.900000	0.918236  	0.900000	0.918237  	0.900000	0.948375  	0.900000	0.000944202	
1.000000	1.1945    	1.000000	0.92419   	1.000000	0.890216  	1.000000	0.890216  	1.000000	0.890216  	1.000000	0.923327  	1.000000	0.000862722	
1.250000	1.08036   	1.250000	0.850113  	1.250000	0.821738  	1.250000	0.821738  	1.250000	0.821738  	1.250000	0.849401  	1.250000	0.000712102	
1.500000	0.980426  	1.500000	0.784072  	1.500000	0.76033   	1.500000	0.76033   	1.500000	0.760331  	1.500000	0.783463  	1.500000	0.000608347	
1.750000	0.893569  	1.750000	0.725637  	1.750000	0.707779  	1.750000	0.707779  	1.750000	0.707779  	1.750000	0.725104  	1.750000	0.000532259	
2.000000	0.821694  	2.000000	0.677675  	2.000000	0.662073  	2.000000	0.662073  	2.000000	0.662073  	2.000000	0.677201  	2.000000	0.000473926	
2.250000	0.762194  	2.250000	0.632559  	2.250000	0.621911  	2.250000	0.621911  	2.250000	0.621912  	2.250000	0.632132  	2.250000	0.000427697	
2.500000	0.698765  	2.500000	0.593583  	2.500000	0.586354  	2.500000	0.586354  	2.500000	0.586354  	2.500000	0.593193  	2.500000	0.000390104	
3.000000	0.619745  	3.000000	0.527465  	3.000000	0.526299  	3.000000	0.526299  	3.000000	0.526299  	3.000000	0.527133  	3.000000	0.00033255	
3.500000	0.557602  	3.500000	0.477036  	3.500000	0.47765   	3.500000	0.47765   	3.500000	0.47765   	3.500000	0.476746  	3.500000	0.000290453	
4.000000	0.507413  	4.000000	0.436668  	4.000000	0.437528  	4.000000	0.437528  	4.000000	0.437528  	4.000000	0.436409  	4.000000	0.000258246	
4.500000	0.466001  	4.500000	0.403333  	4.500000	0.403916  	4.500000	0.403916  	4.500000	0.403917  	4.500000	0.403101  	4.500000	0.000232767	
5.000000	0.431223  	5.000000	0.375209  	5.000000	0.375375  	5.000000	0.375375  	5.000000	0.375375  	5.000000	0.374997  	5.000000	0.000212078	
5.500000	0.401584  	5.500000	0.351097  	5.500000	0.350836  	5.500000	0.350836  	5.500000	0.350836  	5.500000	0.350902  	5.500000	0.000194927	
6.000000	0.37601   	6.000000	0.330162  	6.000000	0.329515  	6.000000	0.329515  	6.000000	0.329515  	6.000000	0.329982  	6.000000	0.000180464	
6.500000	0.353706  	6.500000	0.311795  	6.500000	0.310815  	6.500000	0.310815  	6.500000	0.310815  	6.500000	0.311627  	6.500000	0.000168094	
7.000000	0.334075  	7.000000	0.295538  	7.000000	0.294276  	7.000000	0.294276  	7.000000	0.294276  	7.000000	0.295381  	7.000000	0.000157388	
7.500000	0.316656  	7.500000	0.281039  	7.500000	0.279541  	7.500000	0.279541  	7.500000	0.279541  	7.500000	0.280891  	7.500000	0.000148025	
8.000000	0.301091  	8.000000	0.26802   	8.000000	0.266325  	8.000000	0.266325  	8.000000	0.266325  	8.000000	0.26788   	8.000000	0.000139764	
8.500000	0.287095  	8.500000	0.256261  	8.500000	0.254402  	8.500000	0.254402  	8.500000	0.254402  	8.500000	0.256129  	8.500000	0.000132419	
9.000000	0.274437  	9.000000	0.245584  	9.000000	0.243586  	9.000000	0.243586  	9.000000	0.243586  	9.000000	0.245458  	9.000000	0.000125842	
9.500000	0.262932  	9.500000	0.235842  	9.500000	0.233729  	9.500000	0.233729  	9.500000	0.233729  	9.500000	0.235722  	9.500000	0.000119918	
10.000000	0.252428  	10.000000	0.228001  	10.000000	0.224704  	10.000000	0.224704  	10.000000	0.224705  	10.000000	0.227886  	10.000000	0.000114552	
11.000000	0.233931  	11.000000	0.212733  	11.000000	0.208839  	11.000000	0.208957  	11.000000	0.208863  	11.000000	0.212628  	11.000000	0.000105202	
12.000000	0.218158  	12.000000	0.19947   	12.000000	0.195273  	12.000000	0.195465  	12.000000	0.195305  	12.000000	0.199373  	12.000000	9.73262e-05	
13.000000	0.20454   	13.000000	0.187848  	13.000000	0.183532  	13.000000	0.183773  	13.000000	0.183567  	13.000000	0.187758  	13.000000	9.05957e-05	
14.000000	0.192657  	14.000000	0.177584  	14.000000	0.173267  	14.000000	0.17354   	14.000000	0.173301  	14.000000	0.177499  	14.000000	8.47747e-05	
15.000000	0.182193  	15.000000	0.168454  	15.000000	0.164215  	15.000000	0.164505  	15.000000	0.164246  	15.000000	0.168374  	15.000000	7.9688e-05	
16.000000	0.172905  	16.000000	0.160282  	16.000000	0.156168  	16.000000	0.156468  	16.000000	0.156198  	16.000000	0.160206  	16.000000	7.52029e-05	
17.000000	0.164602  	17.000000	0.152923  	17.000000	0.148968  	17.000000	0.14927   	17.000000	0.148997  	17.000000	0.152852  	17.000000	7.12172e-05	
18.000000	0.157133  	18.000000	0.146263  	18.000000	0.142489  	18.000000	0.142787  	18.000000	0.142513  	18.000000	0.146196  	18.000000	6.76507e-05	
19.000000	0.150376  	19.000000	0.140206  	19.000000	0.136627  	19.000000	0.136916  	19.000000	0.136646  	19.000000	0.140142  	19.000000	6.44396e-05	
20.000000	0.144232  	20.000000	0.134673  	20.000000	0.131294  	20.000000	0.131574  	20.000000	0.131311  	20.000000	0.134612  	20.000000	6.15326e-05	
21.000000	0.138621  	21.000000	0.129599  	21.000000	0.126423  	21.000000	0.126693  	21.000000	0.126438  	21.000000	0.12954   	21.000000	5.88879e-05	
22.000000	0.133475  	22.000000	0.124929  	22.000000	0.121959  	22.000000	0.122215  	22.000000	0.121971  	22.000000	0.124872  	22.000000	5.64708e-05	
23.000000	0.128737  	23.000000	0.120615  	23.000000	0.117853  	23.000000	0.118094  	23.000000	0.117861  	23.000000	0.120561  	23.000000	5.4253e-05	
24.000000	0.12436   	24.000000	0.116619  	24.000000	0.11406   	24.000000	0.114287  	24.000000	0.114067  	24.000000	0.116566  	24.000000	5.22102e-05	
25.000000	0.120303  	25.000000	0.112905  	25.000000	0.110547  	25.000000	0.110762  	25.000000	0.110555  	25.000000	0.112855  	25.000000	5.03224e-05	
27.000000	0.113018  	27.000000	0.106214  	27.000000	0.104251  	27.000000	0.10444   	27.000000	0.10426   	27.000000	0.106167  	27.000000	4.69449e-05	
29.000000	0.106659  	29.000000	0.100351  	29.000000	0.0987814 	29.000000	0.0989369 	29.000000	0.0987838 	29.000000	0.100307  	29.000000	4.40099e-05	
31.000000	0.101056  	31.000000	0.0951686 	31.000000	0.093857  	31.000000	0.0939773 	31.000000	0.0938574 	31.000000	0.0951271 	31.000000	4.14348e-05	
33.000000	0.0960802 	33.000000	0.0905545 	33.000000	0.0893566 	33.000000	0.0894481 	33.000000	0.0893622 	33.000000	0.0905154 	33.000000	3.91563e-05	
35.000000	0.0916301 	35.000000	0.0864189 	35.000000	0.0853339 	35.000000	0.0853898 	35.000000	0.0853318 	35.000000	0.0863818 	35.000000	3.71253e-05	
38.000000	0.0857689 	38.000000	0.0809598 	38.000000	0.0800135 	38.000000	0.0800332 	38.000000	0.0800083 	38.000000	0.0809254 	38.000000	3.44601e-05	
41.000000	0.0807038 	41.000000	0.0762321 	41.000000	0.0754    	41.000000	0.0753935 	41.000000	0.0753939 	41.000000	0.0761999 	41.000000	3.21663e-05	
44.000000	0.0762802 	44.000000	0.0720963 	44.000000	0.0713522 	44.000000	0.0713332 	44.000000	0.0713534 	44.000000	0.0720661 	44.000000	3.01702e-05	
47.000000	0.0723814 	47.000000	0.0684466 	47.000000	0.0677818 	47.000000	0.0677484 	47.000000	0.0677842 	47.000000	0.0684182 	47.000000	2.84168e-05	
50.000000	0.0689176 	50.000000	0.0652011 	50.000000	0.0646102 	50.000000	0.0645587 	50.000000	0.064607  	50.000000	0.0651743 	50.000000	2.68638e-05	
55.000000	0.0639272 	55.000000	0.0605213 	55.000000	0.0600192 	55.000000	0.0599552 	55.000000	0.0600192 	55.000000	0.0604967 	55.000000	2.46345e-05	
60.000000	0.0597126 	60.000000	0.0565668 	60.000000	0.056133  	60.000000	0.0560608 	60.000000	0.0561358 	60.000000	0.056544  	60.000000	2.27597e-05	
65.000000	0.0561028 	65.000000	0.0531794 	65.000000	0.0528053 	65.000000	0.0527209 	65.000000	0.0528039 	65.000000	0.0531582 	65.000000	2.11602e-05	
70.000000	0.052974  	70.000000	0.050244  	70.000000	0.0499095 	70.000000	0.0498235 	70.000000	0.0499122 	70.000000	0.0502243 	70.000000	1.97788e-05	
75.000000	0.0502343 	75.000000	0.0476749 	75.000000	0.0473808 	75.000000	0.0472848 	75.000000	0.0473777 	75.000000	0.0476564 	75.000000	1.85732e-05	
80.000000	0.0478139 	80.000000	0.0454069 	80.000000	0.0451398 	80.000000	0.0450412 	80.000000	0.0451372 	80.000000	0.0453894 	80.000000	1.75114e-05	
85.000000	0.045659  	85.000000	0.0433894 	85.000000	0.0431435 	85.000000	0.0430436 	85.000000	0.0431417 	85.000000	0.0433728 	85.000000	1.6569e-05	
90.000000	0.0437272 	90.000000	0.0415826 	90.000000	0.0413541 	90.000000	0.041253  	90.000000	0.0413526 	90.000000	0.0415669 	90.000000	1.57265e-05	
95.000000	0.0419848 	95.000000	0.039955  	95.000000	0.0397405 	95.000000	0.0396385 	95.000000	0.0397392 	95.000000	0.03994   	95.000000	1.49686e-05	
100.000000	0.0404047 	100.000000	0.0384808 	100.000000	0.0382777 	100.000000	0.0381751 	100.000000	0.0382764 	100.000000	0.0384665 	100.000000	1.42832e-05	
105.000000	0.0389647 	105.000000	0.0371391 	105.000000	0.0369455 	105.000000	0.0368422 	105.000000	0.036944  	105.000000	0.0371254 	105.000000	1.36601e-05	
110.000000	0.0376465 	110.000000	0.0359127 	110.000000	0.0357266 	110.000000	0.0356231 	110.000000	0.0357251 	110.000000	0.0358996 	110.000000	1.30912e-05	
115.000000	0.0364349 	115.000000	0.0347872 	115.000000	0.034608  	115.000000	0.0345037 	115.000000	0.0346055 	115.000000	0.0347746 	115.000000	1.25694e-05	
120.000000	0.0353173 	120.000000	0.0337505 	120.000000	0.0335742 	120.000000	0.033472  	120.000000	0.0335737 	120.000000	0.0337385 	120.000000	1.20893e-05	
125.000000	0.0342827 	125.000000	0.0327925 	125.000000	0.0326173 	125.000000	0.0325181 	125.000000	0.0326195 	125.000000	0.0327809 	125.000000	1.16458e-05	
130.000000	0.0333221 	130.000000	0.0319045 	130.000000	0.0317331 	130.000000	0.0316334 	130.000000	0.0317346 	130.000000	0.0318932 	130.000000	1.1235e-05	
135.000000	0.0324276 	135.000000	0.0310789 	135.000000	0.0309107 	135.000000	0.0308107 	135.000000	0.0309115 	135.000000	0.0310681 	135.000000	1.08532e-05	
140.000000	0.0315924 	140.000000	0.0303094 	140.000000	0.0301435 	140.000000	0.0300436 	140.000000	0.030144  	140.000000	0.030299  	140.000000	1.04975e-05	
145.000000	0.0308107 	145.000000	0.0295905 	145.000000	0.0294266 	145.000000	0.0293267 	145.000000	0.0294265 	145.000000	0.0295803 	145.000000	1.01652e-05	
150.000000	0.0300774 	150.000000	0.0289173 	150.000000	0.0287549 	150.000000	0.0286551 	150.000000	0.0287545 	150.000000	0.0289074 	150.000000	9.85413e-06	
155.000000	0.0290448 	155.000000	0.0282854 	155.000000	0.0281249 	155.000000	0.0280247 	155.000000	0.0281235 	155.000000	0.0282759 	155.000000	9.56224e-06	
160.000000	0.0284396 	160.000000	0.0276913 	160.000000	0.0275312 	160.000000	0.0274318 	160.000000	0.0275301 	160.000000	0.027682  	160.000000	9.28779e-06	
165.000000	0.0278688 	165.000000	0.0271316 	165.000000	0.0269699 	165.000000	0.0268731 	165.000000	0.0269709 	165.000000	0.0271226 	165.000000	9.02925e-06	
170.000000	0.0273297 	170.000000	0.0266034 	170.000000	0.0264415 	170.000000	0.0263458 	170.000000	0.026443  	170.000000	0.0265947 	170.000000	8.78525e-06	
175.000000	0.0268195 	175.000000	0.0261042 	175.000000	0.0259433 	175.000000	0.0258473 	175.000000	0.025944  	175.000000	0.0260956 	175.000000	8.55459e-06	
180.000000	0.0263361 	180.000000	0.0256315 	180.000000	0.0254712 	180.000000	0.0253753 	180.000000	0.0254715 	180.000000	0.0256231 	180.000000	8.33618e-06	
185.000000	0.0258772 	185.000000	0.0251833 	185.000000	0.0250237 	185.000000	0.0249278 	185.000000	0.0250234 	185.000000	0.0251752 	185.000000	8.12907e-06	
190.000000	0.0254411 	190.000000	0.0247578 	190.000000	0.0245989 	190.000000	0.0245029 	190.000000	0.0245979 	190.000000	0.0247498 	190.000000	7.93238e-06	
195.000000	0.0250262 	195.000000	0.0243532 	195.000000	0.0241938 	195.000000	0.0240989 	195.000000	0.0241934 	195.000000	0.0243455 	195.000000	7.74535e-06	
200.000000	0.0246307 	200.000000	0.0239681 	200.000000	0.0238073 	200.000000	0.0237144 	200.000000	0.0238083 	200.000000	0.0239606 	200.000000	7.56726e-06	
210.000000	0.0238933 	210.000000	0.023251  	210.000000	0.0230903 	210.000000	0.0229983 	210.000000	0.0230913 	210.000000	0.0232438 	210.000000	7.23545e-06	
220.000000	0.0232193 	220.000000	0.0225969 	220.000000	0.0224371 	220.000000	0.0223452 	220.000000	0.0224371 	220.000000	0.02259   	220.000000	6.93254e-06	
230.000000	0.0226009 	230.000000	0.0219978 	230.000000	0.0218392 	230.000000	0.0217472 	230.000000	0.0218382 	230.000000	0.0219912 	230.000000	6.65486e-06	
240.000000	0.0220313 	240.000000	0.0214472 	240.000000	0.0212873 	240.000000	0.0211977 	240.000000	0.0212877 	240.000000	0.0214408 	240.000000	6.39935e-06	
250.000000	0.0215051 	250.000000	0.0209393 	250.000000	0.0207794 	250.000000	0.0206911 	250.000000	0.0207802 	250.000000	0.0209331 	250.000000	6.16343e-06	
260.000000	0.0210173 	260.000000	0.0204695 	260.000000	0.020311  	260.000000	0.0202226 	260.000000	0.0203109 	260.000000	0.0204635 	260.000000	5.94491e-06	
270.000000	0.020564  	270.000000	0.0200336 	270.000000	0.0198762 	270.000000	0.0197882 	270.000000	0.0198756 	270.000000	0.0200279 	270.000000	5.74189e-06	
280.000000	0.0201416 	280.000000	0.0196282 	280.000000	0.0194717 	280.000000	0.0193843 	280.000000	0.0194709 	280.000000	0.0196226 	280.000000	5.55278e-06	
290.000000	0.0197471 	290.000000	0.0192502 	290.000000	0.0190936 	290.000000	0.0190079 	290.000000	0.0190938 	290.000000	0.0192448 	290.000000	5.37616e-06	
300.000000	0.0193778 	300.000000	0.0188969 	300.000000	0.0187411 	300.000000	0.0186563 	300.000000	0.0187415 	300.000000	0.0188917 	300.000000	5.21084e-06	
310.000000	0.0190313 	310.000000	0.018566  	310.000000	0.0184122 	310.000000	0.0183273 	310.000000	0.0184117 	310.000000	0.018561  	310.000000	5.05574e-06	
320.000000	0.0187057 	320.000000	0.0182556 	320.000000	0.0181036 	320.000000	0.0180187 	320.000000	0.0181025 	320.000000	0.0182507 	320.000000	4.90993e-06	
330.000000	0.0183991 	330.000000	0.0179638 	330.000000	0.0178123 	330.000000	0.0177288 	330.000000	0.017812  	330.000000	0.017959  	330.000000	4.7726e-06	
340.000000	0.0181099 	340.000000	0.017689  	340.000000	0.017538  	340.000000	0.017456  	340.000000	0.0175386 	340.000000	0.0176843 	340.000000	4.64301e-06	
350.000000	0.0178367 	350.000000	0.0174298 	350.000000	0.0172806 	350.000000	0.0171989 	350.000000	0.0172808 	350.000000	0.0174252 	350.000000	4.52052e-06	
360.000000	0.0175782 	360.000000	0.0171849 	360.000000	0.0170381 	360.000000	0.0169561 	360.000000	0.0170375 	360.000000	0.0171805 	360.000000	4.40457e-06	
370.000000	0.0173333 	370.000000	0.0169533 	370.000000	0.0168085 	370.000000	0.0167267 	370.000000	0.0168075 	370.000000	0.016949  	370.000000	4.29462e-06	
380.000000	0.017101  	380.000000	0.0167338 	380.000000	0.0165902 	380.000000	0.0165095 	380.000000	0.0165898 	380.000000	0.0167296 	380.000000	4.19022e-06	
390.000000	0.0168804 	390.000000	0.0165257 	390.000000	0.016383  	390.000000	0.0163036 	390.000000	0.0163834 	390.000000	0.0165216 	390.000000	4.09096e-06	
400.000000	0.0166705 	400.000000	0.0163281 	400.000000	0.0161872 	400.000000	0.0161083 	400.000000	0.0161876 	400.000000	0.0163241 	400.000000	3.99646e-06	
