*Energy (MeV/u)1	0 - [He-base] F.Hubert et al, AD&ND Tables 46(1990)1	Energy (MeV/u)2	1 - [H -base] J.F.Ziegler et al,Pergamon Press,NY(low energy)	Energy (MeV/u)3	2 - ATIMA 1.2 LS-theory (recommended for high energy)	Energy (MeV/u)4	3 - ATIMA 1.2 without LS-correction	Energy (MeV/u)5	4 - ATIMA 1.4 H.Weick, improved mean charge formula for HI	Energy (MeV/u)6	5 - electrical component of [1] - J.F.Ziegler et al	Energy (MeV/u)7	6 - nuclear component of [1] - J.F.Ziegler et al	
0.001000	3.06261e-06	0.001000	1.68039e-06	0.001000	1.99042e-06	0.001000	1.99042e-06	0.001000	1.99026e-06	0.001000	8.07641e-07	0.001000	8.72753e-07	
0.002000	3.91336e-06	0.002000	2.00952e-06	0.002000	2.49236e-06	0.002000	2.49236e-06	0.002000	2.49227e-06	0.002000	1.36338e-06	0.002000	6.46136e-07	
0.005000	6.05447e-06	0.005000	2.97635e-06	0.005000	3.81015e-06	0.005000	3.81015e-06	0.005000	3.81011e-06	0.005000	2.58892e-06	0.005000	3.87434e-07	
0.008000	7.65918e-06	0.008000	3.77891e-06	0.008000	4.85613e-06	0.008000	4.85613e-06	0.008000	4.8561e-06	0.008000	3.49238e-06	0.008000	2.86532e-07	
0.010000	8.54444e-06	0.010000	4.24068e-06	0.010000	5.44945e-06	0.010000	5.44945e-06	0.010000	5.44943e-06	0.010000	3.99462e-06	0.010000	2.46058e-07	
0.015000	1.09015e-05	0.015000	5.87998e-06	0.015000	6.70372e-06	0.015000	6.70372e-06	0.015000	6.70371e-06	0.015000	5.69627e-06	0.015000	1.83703e-07	
0.020000	1.28735e-05	0.020000	7.35977e-06	0.020000	7.75509e-06	0.020000	7.75509e-06	0.020000	7.75509e-06	0.020000	7.2107e-06	0.020000	1.49072e-07	
0.025000	1.45549e-05	0.025000	8.59838e-06	0.025000	8.68382e-06	0.025000	8.68382e-06	0.025000	8.68382e-06	0.025000	8.47212e-06	0.025000	1.26267e-07	
0.030000	1.59964e-05	0.030000	9.5841e-06	0.030000	9.26498e-06	0.030000	9.26498e-06	0.030000	9.26498e-06	0.030000	9.47411e-06	0.030000	1.09995e-07	
0.035000	1.72284e-05	0.035000	1.03578e-05	0.035000	9.78409e-06	0.035000	9.78409e-06	0.035000	9.78409e-06	0.035000	1.026e-05 	0.035000	9.77395e-08	
0.040000	1.82721e-05	0.040000	1.09782e-05	0.040000	1.02567e-05	0.040000	1.02567e-05	0.040000	1.02567e-05	0.040000	1.08901e-05	0.040000	8.81434e-08	
0.045000	1.91444e-05	0.045000	1.14968e-05	0.045000	1.06927e-05	0.045000	1.06927e-05	0.045000	1.06927e-05	0.045000	1.14164e-05	0.045000	8.0405e-08	
0.050000	1.98604e-05	0.050000	1.19492e-05	0.050000	1.10985e-05	0.050000	1.10985e-05	0.050000	1.10985e-05	0.050000	1.18752e-05	0.050000	7.40192e-08	
0.055000	2.0435e-05	0.055000	1.23568e-05	0.055000	1.14787e-05	0.055000	1.14787e-05	0.055000	1.14787e-05	0.055000	1.22882e-05	0.055000	6.86509e-08	
0.060000	2.08827e-05	0.060000	1.27316e-05	0.060000	1.18363e-05	0.060000	1.18363e-05	0.060000	1.18363e-05	0.060000	1.26675e-05	0.060000	6.40688e-08	
0.070000	2.14553e-05	0.070000	1.34047e-05	0.070000	1.24921e-05	0.070000	1.24921e-05	0.070000	1.24921e-05	0.070000	1.33481e-05	0.070000	5.66453e-08	
0.080000	2.16894e-05	0.080000	1.39907e-05	0.080000	1.30778e-05	0.080000	1.30778e-05	0.080000	1.30778e-05	0.080000	1.39399e-05	0.080000	5.08754e-08	
0.090000	2.16837e-05	0.090000	1.44972e-05	0.090000	1.36004e-05	0.090000	1.36004e-05	0.090000	1.36004e-05	0.090000	1.44509e-05	0.090000	4.62502e-08	
0.100000	2.15187e-05	0.100000	1.49293e-05	0.100000	1.40646e-05	0.100000	1.40646e-05	0.100000	1.40646e-05	0.100000	1.48869e-05	0.100000	4.24525e-08	
0.120000	2.09401e-05	0.120000	1.55937e-05	0.120000	1.48325e-05	0.120000	1.48325e-05	0.120000	1.48325e-05	0.120000	1.55571e-05	0.120000	3.65702e-08	
0.140000	2.02568e-05	0.140000	1.60322e-05	0.140000	1.54074e-05	0.140000	1.54074e-05	0.140000	1.54074e-05	0.140000	1.6e-05   	0.140000	3.22105e-08	
0.160000	1.95978e-05	0.160000	1.62918e-05	0.160000	1.58135e-05	0.160000	1.58135e-05	0.160000	1.58135e-05	0.160000	1.62629e-05	0.160000	2.88395e-08	
0.180000	1.9004e-05	0.180000	1.64124e-05	0.180000	1.6075e-05	0.180000	1.6075e-05	0.180000	1.6075e-05	0.180000	1.63862e-05	0.180000	2.61489e-08	
0.200000	1.84783e-05	0.200000	1.64267e-05	0.200000	1.62147e-05	0.200000	1.62147e-05	0.200000	1.62148e-05	0.200000	1.64027e-05	0.200000	2.39477e-08	
0.250000	1.73932e-05	0.250000	1.61541e-05	0.250000	1.61654e-05	0.250000	1.61654e-05	0.250000	1.61654e-05	0.250000	1.61342e-05	0.250000	1.98591e-08	
0.300000	1.6507e-05	0.300000	1.56366e-05	0.300000	1.57509e-05	0.300000	1.57509e-05	0.300000	1.57509e-05	0.300000	1.56195e-05	0.300000	1.70264e-08	
0.350000	1.57257e-05	0.350000	1.50178e-05	0.350000	1.51522e-05	0.350000	1.51522e-05	0.350000	1.51522e-05	0.350000	1.50029e-05	0.350000	1.49399e-08	
0.400000	1.50102e-05	0.400000	1.43726e-05	0.400000	1.44805e-05	0.400000	1.44805e-05	0.400000	1.44805e-05	0.400000	1.43592e-05	0.400000	1.33346e-08	
0.450000	1.43456e-05	0.450000	1.37386e-05	0.450000	1.37993e-05	0.450000	1.37993e-05	0.450000	1.37993e-05	0.450000	1.37266e-05	0.450000	1.20585e-08	
0.500000	1.37265e-05	0.500000	1.31345e-05	0.500000	1.31422e-05	0.500000	1.31422e-05	0.500000	1.31422e-05	0.500000	1.31235e-05	0.500000	1.10181e-08	
0.600000	1.26141e-05	0.600000	1.20413e-05	0.600000	1.19548e-05	0.600000	1.19548e-05	0.600000	1.19548e-05	0.600000	1.20319e-05	0.600000	9.42037e-09	
0.700000	1.16536e-05	0.700000	1.11038e-05	0.700000	1.09517e-05	0.700000	1.09517e-05	0.700000	1.09517e-05	0.700000	1.10955e-05	0.700000	8.24753e-09	
0.800000	1.08244e-05	0.800000	1.03036e-05	0.800000	1.01123e-05	0.800000	1.01123e-05	0.800000	1.01123e-05	0.800000	1.02962e-05	0.800000	7.34765e-09	
0.900000	1.01056e-05	0.900000	9.61761e-06	0.900000	9.40627e-06	0.900000	9.40627e-06	0.900000	9.40628e-06	0.900000	9.61098e-06	0.900000	6.63401e-09	
1.000000	9.47858e-06	1.000000	9.02492e-06	1.000000	8.80597e-06	1.000000	8.80597e-06	1.000000	8.80598e-06	1.000000	9.01887e-06	1.000000	6.05335e-09	
1.250000	8.2169e-06	1.250000	7.84647e-06	1.250000	7.63549e-06	1.250000	7.63549e-06	1.250000	7.6355e-06	1.250000	7.84149e-06	1.250000	4.98286e-09	
1.500000	7.26423e-06	1.500000	6.96673e-06	1.500000	6.77622e-06	1.500000	6.77622e-06	1.500000	6.77622e-06	1.500000	6.96248e-06	1.500000	4.24782e-09	
1.750000	6.51809e-06	1.750000	6.28181e-06	1.750000	6.11172e-06	1.750000	6.11172e-06	1.750000	6.11172e-06	1.750000	6.2781e-06	1.750000	3.71016e-09	
2.000000	5.91675e-06	2.000000	5.73129e-06	2.000000	5.57838e-06	2.000000	5.57838e-06	2.000000	5.57838e-06	2.000000	5.72799e-06	2.000000	3.29882e-09	
2.250000	5.42111e-06	2.250000	5.27786e-06	2.250000	5.13861e-06	2.250000	5.13861e-06	2.250000	5.13861e-06	2.250000	5.27489e-06	2.250000	2.97339e-09	
2.500000	4.92136e-06	2.500000	4.89716e-06	2.500000	4.76856e-06	2.500000	4.76856e-06	2.500000	4.76856e-06	2.500000	4.89446e-06	2.500000	2.70914e-09	
3.000000	4.2956e-06	3.000000	4.29223e-06	3.000000	4.17824e-06	3.000000	4.17824e-06	3.000000	4.17825e-06	3.000000	4.28993e-06	3.000000	2.30534e-09	
3.500000	3.82125e-06	3.500000	3.83189e-06	3.500000	3.72673e-06	3.500000	3.72673e-06	3.500000	3.72673e-06	3.500000	3.82988e-06	3.500000	2.01059e-09	
4.000000	3.44819e-06	4.000000	3.46902e-06	4.000000	3.36933e-06	4.000000	3.36933e-06	4.000000	3.36933e-06	4.000000	3.46724e-06	4.000000	1.78548e-09	
4.500000	3.14645e-06	4.500000	3.17514e-06	4.500000	3.07893e-06	4.500000	3.07893e-06	4.500000	3.07894e-06	4.500000	3.17353e-06	4.500000	1.60765e-09	
5.000000	2.89695e-06	5.000000	2.93192e-06	5.000000	2.83801e-06	5.000000	2.83801e-06	5.000000	2.83801e-06	5.000000	2.93045e-06	5.000000	1.46343e-09	
5.500000	2.68693e-06	5.500000	2.72701e-06	5.500000	2.63468e-06	5.500000	2.63468e-06	5.500000	2.63469e-06	5.500000	2.72567e-06	5.500000	1.344e-09 	
6.000000	2.50751e-06	6.000000	2.55182e-06	6.000000	2.46063e-06	6.000000	2.46063e-06	6.000000	2.46063e-06	6.000000	2.55057e-06	6.000000	1.24339e-09	
6.500000	2.35234e-06	6.500000	2.40014e-06	6.500000	2.30981e-06	6.500000	2.30981e-06	6.500000	2.30981e-06	6.500000	2.39898e-06	6.500000	1.15741e-09	
7.000000	2.2167e-06	7.000000	2.2674e-06	7.000000	2.17777e-06	7.000000	2.17777e-06	7.000000	2.17777e-06	7.000000	2.26632e-06	7.000000	1.08305e-09	
7.500000	2.09706e-06	7.500000	2.15015e-06	7.500000	2.06112e-06	7.500000	2.06112e-06	7.500000	2.06112e-06	7.500000	2.14914e-06	7.500000	1.01807e-09	
8.000000	1.99068e-06	8.000000	2.04575e-06	8.000000	1.95725e-06	8.000000	1.95725e-06	8.000000	1.95725e-06	8.000000	2.04479e-06	8.000000	9.60777e-10	
8.500000	1.89544e-06	8.500000	1.95212e-06	8.500000	1.86411e-06	8.500000	1.86411e-06	8.500000	1.86412e-06	8.500000	1.95121e-06	8.500000	9.09862e-10	
9.000000	1.80963e-06	9.000000	1.86762e-06	9.000000	1.78009e-06	9.000000	1.78009e-06	9.000000	1.78009e-06	9.000000	1.86676e-06	9.000000	8.64301e-10	
9.500000	1.7319e-06	9.500000	1.79093e-06	9.500000	1.70386e-06	9.500000	1.70386e-06	9.500000	1.70387e-06	9.500000	1.79011e-06	9.500000	8.2328e-10	
10.000000	1.66113e-06	10.000000	1.7463e-06	10.000000	1.63437e-06	10.000000	1.63437e-06	10.000000	1.63437e-06	10.000000	1.74551e-06	10.000000	7.86144e-10	
11.000000	1.53698e-06	11.000000	1.60691e-06	11.000000	1.51088e-06	11.000000	1.51097e-06	11.000000	1.51077e-06	11.000000	1.60619e-06	11.000000	7.2148e-10	
12.000000	1.43155e-06	12.000000	1.48966e-06	12.000000	1.40601e-06	12.000000	1.40617e-06	12.000000	1.40585e-06	12.000000	1.48899e-06	12.000000	6.67051e-10	
13.000000	1.34082e-06	13.000000	1.38959e-06	13.000000	1.31585e-06	13.000000	1.31602e-06	13.000000	1.31563e-06	13.000000	1.38897e-06	13.000000	6.20574e-10	
14.000000	1.26188e-06	14.000000	1.30312e-06	14.000000	1.23748e-06	14.000000	1.23765e-06	14.000000	1.2372e-06	14.000000	1.30254e-06	14.000000	5.80404e-10	
15.000000	1.19252e-06	15.000000	1.22761e-06	15.000000	1.16871e-06	15.000000	1.16887e-06	15.000000	1.16839e-06	15.000000	1.22706e-06	15.000000	5.45322e-10	
16.000000	1.13108e-06	16.000000	1.16107e-06	16.000000	1.10787e-06	16.000000	1.10803e-06	16.000000	1.10752e-06	16.000000	1.16055e-06	16.000000	5.14407e-10	
17.000000	1.07624e-06	17.000000	1.10197e-06	17.000000	1.05369e-06	17.000000	1.05382e-06	17.000000	1.05331e-06	17.000000	1.10148e-06	17.000000	4.86948e-10	
18.000000	1.02698e-06	18.000000	1.0491e-06	18.000000	1.00514e-06	18.000000	1.00524e-06	18.000000	1.00472e-06	18.000000	1.04864e-06	18.000000	4.62389e-10	
19.000000	9.8247e-07	19.000000	1.00152e-06	19.000000	9.61375e-07	19.000000	9.61452e-07	19.000000	9.6093e-07	19.000000	1.00108e-06	19.000000	4.40287e-10	
20.000000	9.42044e-07	20.000000	9.58451e-07	20.000000	9.21716e-07	20.000000	9.21793e-07	20.000000	9.21275e-07	20.000000	9.58031e-07	20.000000	4.20287e-10	
21.000000	9.05155e-07	21.000000	9.1928e-07	21.000000	8.85632e-07	21.000000	8.85715e-07	21.000000	8.85205e-07	21.000000	9.18878e-07	21.000000	4.02097e-10	
22.000000	8.7135e-07	22.000000	8.83489e-07	22.000000	8.52704e-07	22.000000	8.52767e-07	22.000000	8.52267e-07	22.000000	8.83103e-07	22.000000	3.85481e-10	
23.000000	8.40249e-07	23.000000	8.50652e-07	23.000000	8.22549e-07	23.000000	8.22568e-07	23.000000	8.22079e-07	23.000000	8.50282e-07	23.000000	3.70238e-10	
24.000000	8.11536e-07	24.000000	8.20413e-07	24.000000	7.94825e-07	24.000000	7.94799e-07	24.000000	7.94324e-07	24.000000	8.20057e-07	24.000000	3.56204e-10	
25.000000	7.8494e-07	25.000000	7.92471e-07	25.000000	7.69255e-07	25.000000	7.6919e-07	25.000000	7.68729e-07	25.000000	7.92128e-07	25.000000	3.43238e-10	
27.000000	7.37212e-07	27.000000	7.42489e-07	27.000000	7.23718e-07	27.000000	7.23553e-07	27.000000	7.23124e-07	27.000000	7.42169e-07	27.000000	3.20051e-10	
29.000000	6.9558e-07	29.000000	6.99065e-07	29.000000	6.84366e-07	29.000000	6.8416e-07	29.000000	6.83764e-07	29.000000	6.98765e-07	29.000000	2.99914e-10	
31.000000	6.58926e-07	31.000000	6.60971e-07	31.000000	6.49399e-07	31.000000	6.49182e-07	31.000000	6.48837e-07	31.000000	6.60689e-07	31.000000	2.82254e-10	
33.000000	6.26394e-07	33.000000	6.27271e-07	33.000000	6.17814e-07	33.000000	6.1753e-07	33.000000	6.17246e-07	33.000000	6.27004e-07	33.000000	2.66635e-10	
35.000000	5.97312e-07	35.000000	5.97234e-07	35.000000	5.89459e-07	35.000000	5.8919e-07	35.000000	5.88956e-07	35.000000	5.96982e-07	35.000000	2.52719e-10	
38.000000	5.59025e-07	38.000000	5.57827e-07	38.000000	5.52128e-07	38.000000	5.51815e-07	38.000000	5.51642e-07	38.000000	5.57592e-07	38.000000	2.34467e-10	
41.000000	5.25954e-07	41.000000	5.23915e-07	41.000000	5.19792e-07	41.000000	5.19472e-07	41.000000	5.19348e-07	41.000000	5.23696e-07	41.000000	2.18766e-10	
44.000000	4.97083e-07	44.000000	4.94411e-07	44.000000	4.91476e-07	44.000000	4.91193e-07	44.000000	4.91108e-07	44.000000	4.94206e-07	44.000000	2.05111e-10	
47.000000	4.71644e-07	47.000000	4.68497e-07	47.000000	4.66566e-07	47.000000	4.66244e-07	47.000000	4.66191e-07	47.000000	4.68304e-07	47.000000	1.9312e-10	
50.000000	4.49049e-07	50.000000	4.45549e-07	50.000000	4.44386e-07	50.000000	4.44061e-07	50.000000	4.44035e-07	50.000000	4.45366e-07	50.000000	1.82505e-10	
55.000000	4.16503e-07	55.000000	4.12613e-07	55.000000	4.12427e-07	55.000000	4.12074e-07	55.000000	4.12082e-07	55.000000	4.12446e-07	55.000000	1.67274e-10	
60.000000	3.89023e-07	60.000000	3.84923e-07	60.000000	3.85365e-07	60.000000	3.8504e-07	60.000000	3.85075e-07	60.000000	3.84768e-07	60.000000	1.54474e-10	
65.000000	3.65492e-07	65.000000	3.61304e-07	65.000000	3.62209e-07	65.000000	3.61876e-07	65.000000	3.61931e-07	65.000000	3.61161e-07	65.000000	1.43558e-10	
70.000000	3.45099e-07	70.000000	3.40912e-07	70.000000	3.42134e-07	70.000000	3.41796e-07	70.000000	3.41867e-07	70.000000	3.40778e-07	70.000000	1.34135e-10	
75.000000	3.27244e-07	75.000000	3.23119e-07	75.000000	3.24526e-07	75.000000	3.24215e-07	75.000000	3.24299e-07	75.000000	3.22994e-07	75.000000	1.25915e-10	
80.000000	3.11471e-07	80.000000	3.07455e-07	80.000000	3.09027e-07	80.000000	3.08688e-07	80.000000	3.08783e-07	80.000000	3.07336e-07	80.000000	1.18679e-10	
85.000000	2.97429e-07	85.000000	2.93554e-07	85.000000	2.95192e-07	85.000000	2.94871e-07	85.000000	2.94974e-07	85.000000	2.93442e-07	85.000000	1.12258e-10	
90.000000	2.84842e-07	90.000000	2.81132e-07	90.000000	2.828e-07 	90.000000	2.82493e-07	90.000000	2.82603e-07	90.000000	2.81026e-07	90.000000	1.0652e-10	
95.000000	2.73489e-07	95.000000	2.69963e-07	95.000000	2.71667e-07	95.000000	2.71338e-07	95.000000	2.71454e-07	95.000000	2.69861e-07	95.000000	1.01361e-10	
100.000000	2.63195e-07	100.000000	2.59863e-07	100.000000	2.61547e-07	100.000000	2.61232e-07	100.000000	2.61353e-07	100.000000	2.59767e-07	100.000000	9.66954e-11	
105.000000	2.53813e-07	105.000000	2.50686e-07	105.000000	2.52334e-07	105.000000	2.52032e-07	105.000000	2.52157e-07	105.000000	2.50594e-07	105.000000	9.24557e-11	
110.000000	2.45225e-07	110.000000	2.42309e-07	110.000000	2.43907e-07	110.000000	2.4362e-07	110.000000	2.43749e-07	110.000000	2.4222e-07	110.000000	8.85853e-11	
115.000000	2.37332e-07	115.000000	2.34631e-07	115.000000	2.36196e-07	115.000000	2.35899e-07	115.000000	2.3603e-07	115.000000	2.34546e-07	115.000000	8.50373e-11	
120.000000	2.30051e-07	120.000000	2.27567e-07	120.000000	2.29089e-07	120.000000	2.28786e-07	120.000000	2.28919e-07	120.000000	2.27485e-07	120.000000	8.17725e-11	
125.000000	2.23311e-07	125.000000	2.21046e-07	125.000000	2.22499e-07	125.000000	2.22211e-07	125.000000	2.22347e-07	125.000000	2.20967e-07	125.000000	7.87581e-11	
130.000000	2.17054e-07	130.000000	2.15006e-07	130.000000	2.16395e-07	130.000000	2.16116e-07	130.000000	2.16253e-07	130.000000	2.1493e-07	130.000000	7.59658e-11	
135.000000	2.11227e-07	135.000000	2.09397e-07	135.000000	2.10741e-07	135.000000	2.10449e-07	135.000000	2.10587e-07	135.000000	2.09324e-07	135.000000	7.33718e-11	
140.000000	2.05786e-07	140.000000	2.04174e-07	140.000000	2.0546e-07	140.000000	2.05167e-07	140.000000	2.05307e-07	140.000000	2.04103e-07	140.000000	7.09554e-11	
145.000000	2.00694e-07	145.000000	1.99297e-07	145.000000	2.00513e-07	145.000000	2.00231e-07	145.000000	2.00372e-07	145.000000	1.99228e-07	145.000000	6.86987e-11	
150.000000	1.95917e-07	150.000000	1.94733e-07	150.000000	1.95884e-07	150.000000	1.95609e-07	150.000000	1.95751e-07	150.000000	1.94666e-07	150.000000	6.65862e-11	
155.000000	1.89191e-07	155.000000	1.90453e-07	155.000000	1.91537e-07	155.000000	1.91272e-07	155.000000	1.91414e-07	155.000000	1.90388e-07	155.000000	6.46044e-11	
160.000000	1.85248e-07	160.000000	1.86431e-07	160.000000	1.87456e-07	160.000000	1.87193e-07	160.000000	1.87336e-07	160.000000	1.86368e-07	160.000000	6.27413e-11	
165.000000	1.8153e-07	165.000000	1.82644e-07	165.000000	1.83624e-07	165.000000	1.83351e-07	165.000000	1.83495e-07	165.000000	1.82583e-07	165.000000	6.09865e-11	
170.000000	1.78018e-07	170.000000	1.79072e-07	170.000000	1.8e-07   	170.000000	1.79726e-07	170.000000	1.79869e-07	170.000000	1.79012e-07	170.000000	5.93307e-11	
175.000000	1.74695e-07	175.000000	1.75697e-07	175.000000	1.76564e-07	175.000000	1.76299e-07	175.000000	1.76443e-07	175.000000	1.75639e-07	175.000000	5.77656e-11	
180.000000	1.71546e-07	180.000000	1.72503e-07	180.000000	1.73315e-07	180.000000	1.73055e-07	180.000000	1.73199e-07	180.000000	1.72447e-07	180.000000	5.62839e-11	
185.000000	1.68557e-07	185.000000	1.69476e-07	185.000000	1.70234e-07	185.000000	1.6998e-07	185.000000	1.70124e-07	185.000000	1.69422e-07	185.000000	5.4879e-11	
190.000000	1.65717e-07	190.000000	1.66604e-07	190.000000	1.67308e-07	190.000000	1.6706e-07	190.000000	1.67205e-07	190.000000	1.6655e-07	190.000000	5.3545e-11	
195.000000	1.63013e-07	195.000000	1.63874e-07	195.000000	1.64534e-07	195.000000	1.64285e-07	195.000000	1.6443e-07	195.000000	1.63822e-07	195.000000	5.22767e-11	
200.000000	1.60438e-07	200.000000	1.61277e-07	200.000000	1.61901e-07	200.000000	1.61644e-07	200.000000	1.61789e-07	200.000000	1.61226e-07	200.000000	5.10691e-11	
210.000000	1.55634e-07	210.000000	1.56442e-07	210.000000	1.56979e-07	210.000000	1.56728e-07	210.000000	1.56873e-07	210.000000	1.56393e-07	210.000000	4.88197e-11	
220.000000	1.51244e-07	220.000000	1.52034e-07	220.000000	1.52488e-07	220.000000	1.52245e-07	220.000000	1.5239e-07	220.000000	1.51987e-07	220.000000	4.67667e-11	
230.000000	1.47216e-07	230.000000	1.47999e-07	230.000000	1.48375e-07	230.000000	1.48141e-07	230.000000	1.48286e-07	230.000000	1.47954e-07	230.000000	4.48851e-11	
240.000000	1.43506e-07	240.000000	1.44292e-07	240.000000	1.44611e-07	240.000000	1.44372e-07	240.000000	1.44516e-07	240.000000	1.44249e-07	240.000000	4.31541e-11	
250.000000	1.40078e-07	250.000000	1.40875e-07	250.000000	1.41137e-07	250.000000	1.40897e-07	250.000000	1.41041e-07	250.000000	1.40833e-07	250.000000	4.15562e-11	
260.000000	1.36901e-07	260.000000	1.37714e-07	260.000000	1.37917e-07	260.000000	1.37685e-07	260.000000	1.37829e-07	260.000000	1.37674e-07	260.000000	4.00763e-11	
270.000000	1.33948e-07	270.000000	1.34783e-07	270.000000	1.34933e-07	270.000000	1.34707e-07	270.000000	1.3485e-07	270.000000	1.34744e-07	270.000000	3.87018e-11	
280.000000	1.31197e-07	280.000000	1.32057e-07	280.000000	1.32159e-07	280.000000	1.31939e-07	280.000000	1.32082e-07	280.000000	1.3202e-07	280.000000	3.74216e-11	
290.000000	1.28627e-07	290.000000	1.29516e-07	290.000000	1.29586e-07	290.000000	1.2936e-07	290.000000	1.29502e-07	290.000000	1.2948e-07	290.000000	3.62262e-11	
300.000000	1.26221e-07	300.000000	1.27142e-07	300.000000	1.27179e-07	300.000000	1.26951e-07	300.000000	1.27093e-07	300.000000	1.27107e-07	300.000000	3.51074e-11	
310.000000	1.23964e-07	310.000000	1.24919e-07	310.000000	1.24919e-07	310.000000	1.24698e-07	310.000000	1.24839e-07	310.000000	1.24885e-07	310.000000	3.4058e-11	
320.000000	1.21843e-07	320.000000	1.22833e-07	320.000000	1.22802e-07	320.000000	1.22585e-07	320.000000	1.22726e-07	320.000000	1.228e-07 	320.000000	3.30716e-11	
330.000000	1.19846e-07	330.000000	1.20873e-07	330.000000	1.20811e-07	330.000000	1.206e-07 	330.000000	1.2074e-07	330.000000	1.20841e-07	330.000000	3.21426e-11	
340.000000	1.17962e-07	340.000000	1.19027e-07	340.000000	1.18942e-07	340.000000	1.18732e-07	340.000000	1.18873e-07	340.000000	1.18996e-07	340.000000	3.12662e-11	
350.000000	1.16183e-07	350.000000	1.17286e-07	350.000000	1.17187e-07	350.000000	1.16973e-07	350.000000	1.17112e-07	350.000000	1.17255e-07	350.000000	3.04379e-11	
