*Energy (MeV/u)1	0 - [He-base] F.Hubert et al, AD&ND Tables 46(1990)1	Energy (MeV/u)2	1 - [H -base] J.F.Ziegler et al, Pergamon Press, NY (low energy)	Energy (MeV/u)3	2 - ATIMA 1.2  LS-theory (recommended for high energy)	Energy (MeV/u)4	3 - ATIMA 1.2  without LS-correction	Energy (MeV/u)5	4 - electrical component of [1] - J.F.Ziegler et al	Energy (MeV/u)6	5 - nuclear component of [1] - J.F.Ziegler et al	
0.001000	1.08887e-06	0.001000	1.31359e-06	0.001000	1.63247e-06	0.001000	1.63247e-06	0.001000	6.92989e-07	0.001000	6.20597e-07	
0.002000	1.39134e-06	0.002000	1.52814e-06	0.002000	1.9336e-06	0.002000	1.9336e-06	0.002000	1.11892e-06	0.002000	4.09225e-07	
0.005000	2.15258e-06	0.005000	2.21691e-06	0.005000	2.70306e-06	0.005000	2.70306e-06	0.005000	1.99997e-06	0.005000	2.16944e-07	
0.008000	2.72312e-06	0.008000	2.76713e-06	0.008000	3.25326e-06	0.008000	3.25326e-06	0.008000	2.61357e-06	0.008000	1.5356e-07	
0.010000	3.03786e-06	0.010000	3.07387e-06	0.010000	3.54444e-06	0.010000	3.54444e-06	0.010000	2.94419e-06	0.010000	1.29673e-07	
0.015000	3.8759e-06	0.015000	3.88887e-06	0.015000	4.12004e-06	0.015000	4.12004e-06	0.015000	3.79415e-06	0.015000	9.47164e-08	
0.020000	4.577e-06 	0.020000	4.466e-06 	0.020000	4.56882e-06	0.020000	4.56882e-06	0.020000	4.39056e-06	0.020000	7.54368e-08	
0.025000	5.17481e-06	0.025000	4.96662e-06	0.025000	4.94677e-06	0.025000	4.94677e-06	0.025000	4.90354e-06	0.025000	6.30795e-08	
0.030000	5.6873e-06	0.030000	5.47931e-06	0.030000	5.36793e-06	0.030000	5.36793e-06	0.030000	5.42489e-06	0.030000	5.44251e-08	
0.035000	6.12532e-06	0.035000	6.00181e-06	0.035000	5.74708e-06	0.035000	5.74708e-06	0.035000	5.95381e-06	0.035000	4.79972e-08	
0.040000	6.49639e-06	0.040000	6.51248e-06	0.040000	6.09343e-06	0.040000	6.09343e-06	0.040000	6.46946e-06	0.040000	4.30186e-08	
0.045000	6.80651e-06	0.045000	6.99529e-06	0.045000	6.41298e-06	0.045000	6.41298e-06	0.045000	6.95625e-06	0.045000	3.90393e-08	
0.050000	7.0611e-06	0.050000	7.44174e-06	0.050000	6.70975e-06	0.050000	6.70975e-06	0.050000	7.40596e-06	0.050000	3.57799e-08	
0.055000	7.26538e-06	0.055000	7.84853e-06	0.055000	6.98652e-06	0.055000	6.98652e-06	0.055000	7.81547e-06	0.055000	3.30572e-08	
0.060000	7.42455e-06	0.060000	8.21539e-06	0.060000	7.24529e-06	0.060000	7.24529e-06	0.060000	8.18465e-06	0.060000	3.0746e-08	
0.070000	7.62812e-06	0.070000	8.83603e-06	0.070000	7.71423e-06	0.070000	7.71423e-06	0.070000	8.809e-06 	0.070000	2.70273e-08	
0.080000	7.71137e-06	0.080000	9.32307e-06	0.080000	8.12452e-06	0.080000	8.12452e-06	0.080000	9.29891e-06	0.080000	2.41594e-08	
0.090000	7.70933e-06	0.090000	9.69867e-06	0.090000	8.48128e-06	0.090000	8.48128e-06	0.090000	9.6768e-06	0.090000	2.18753e-08	
0.100000	7.6507e-06	0.100000	9.98307e-06	0.100000	8.78839e-06	0.100000	8.78839e-06	0.100000	9.96306e-06	0.100000	2.001e-08 	
0.120000	7.44497e-06	0.120000	1.03436e-05	0.120000	9.26694e-06	0.120000	9.26694e-06	0.120000	1.03264e-05	0.120000	1.71397e-08	
0.140000	7.20201e-06	0.140000	1.05066e-05	0.140000	9.58587e-06	0.140000	9.58587e-06	0.140000	1.04916e-05	0.140000	1.5028e-08	
0.160000	6.96775e-06	0.160000	1.05385e-05	0.160000	9.77063e-06	0.160000	9.77063e-06	0.160000	1.05251e-05	0.160000	1.34047e-08	
0.180000	6.75662e-06	0.180000	1.04824e-05	0.180000	9.84593e-06	0.180000	9.84593e-06	0.180000	1.04703e-05	0.180000	1.21155e-08	
0.200000	6.56972e-06	0.200000	1.03669e-05	0.200000	9.83462e-06	0.200000	9.83462e-06	0.200000	1.03558e-05	0.200000	1.1065e-08	
0.250000	6.18391e-06	0.250000	9.93194e-06	0.250000	9.55189e-06	0.250000	9.55189e-06	0.250000	9.92281e-06	0.250000	9.12504e-09	
0.300000	5.86884e-06	0.300000	9.40835e-06	0.300000	9.07744e-06	0.300000	9.07744e-06	0.300000	9.40056e-06	0.300000	7.79009e-09	
0.350000	5.59107e-06	0.350000	8.87214e-06	0.350000	8.54347e-06	0.350000	8.54347e-06	0.350000	8.86532e-06	0.350000	6.81193e-09	
0.400000	5.33666e-06	0.400000	8.35681e-06	0.400000	8.01606e-06	0.400000	8.01606e-06	0.400000	8.35074e-06	0.400000	6.06254e-09	
0.450000	5.10039e-06	0.450000	7.87627e-06	0.450000	7.52407e-06	0.450000	7.52407e-06	0.450000	7.8708e-06	0.450000	5.46898e-09	
0.500000	4.88028e-06	0.500000	7.43497e-06	0.500000	7.07725e-06	0.500000	7.07725e-06	0.500000	7.42998e-06	0.500000	4.98654e-09	
0.600000	4.48476e-06	0.600000	6.6674e-06	0.600000	6.31791e-06	0.600000	6.31791e-06	0.600000	6.66315e-06	0.600000	4.24839e-09	
0.700000	4.14327e-06	0.700000	6.03432e-06	0.700000	5.71057e-06	0.700000	5.71057e-06	0.700000	6.03061e-06	0.700000	3.70883e-09	
0.800000	3.84845e-06	0.800000	5.50963e-06	0.800000	5.21924e-06	0.800000	5.21924e-06	0.800000	5.50633e-06	0.800000	3.29628e-09	
0.900000	3.5929e-06	0.900000	5.07036e-06	0.900000	4.81481e-06	0.900000	4.81481e-06	0.900000	5.06739e-06	0.900000	2.97005e-09	
1.000000	3.36998e-06	1.000000	4.69831e-06	1.000000	4.47596e-06	1.000000	4.47596e-06	1.000000	4.6956e-06	1.000000	2.70528e-09	
1.250000	2.92141e-06	1.250000	3.97879e-06	1.250000	3.82577e-06	1.250000	3.82577e-06	1.250000	3.97657e-06	1.250000	2.21882e-09	
1.500000	2.5827e-06	1.500000	3.45926e-06	1.500000	3.35612e-06	1.500000	3.35612e-06	1.500000	3.45737e-06	1.500000	1.88619e-09	
1.750000	2.31742e-06	1.750000	3.0654e-06	1.750000	2.99743e-06	1.750000	2.99743e-06	1.750000	3.06376e-06	1.750000	1.64368e-09	
2.000000	2.10362e-06	2.000000	2.75573e-06	2.000000	2.71265e-06	2.000000	2.71265e-06	2.000000	2.75427e-06	2.000000	1.45864e-09	
2.250000	1.9274e-06	2.250000	2.50538e-06	2.250000	2.48013e-06	2.250000	2.48013e-06	2.250000	2.50407e-06	2.250000	1.31258e-09	
2.500000	1.74972e-06	2.500000	2.29853e-06	2.500000	2.28623e-06	2.500000	2.28623e-06	2.500000	2.29734e-06	2.500000	1.19421e-09	
3.000000	1.52724e-06	3.000000	1.97625e-06	3.000000	1.98047e-06	3.000000	1.98047e-06	3.000000	1.97524e-06	3.000000	1.01377e-09	
3.500000	1.35859e-06	3.500000	1.73639e-06	3.500000	1.74977e-06	3.500000	1.74977e-06	3.500000	1.7355e-06	3.500000	8.82414e-10	
4.000000	1.22596e-06	4.000000	1.55071e-06	4.000000	1.56925e-06	4.000000	1.56925e-06	4.000000	1.54992e-06	4.000000	7.82322e-10	
4.500000	1.11868e-06	4.500000	1.40259e-06	4.500000	1.424e-06 	4.500000	1.424e-06 	4.500000	1.40188e-06	4.500000	7.03403e-10	
5.000000	1.02997e-06	5.000000	1.28159e-06	5.000000	1.3045e-06	5.000000	1.3045e-06	5.000000	1.28095e-06	5.000000	6.39508e-10	
5.500000	9.553e-07 	5.500000	1.18081e-06	5.500000	1.2044e-06	5.500000	1.2044e-06	5.500000	1.18022e-06	5.500000	5.86671e-10	
6.000000	8.91512e-07	6.000000	1.09552e-06	6.000000	1.11927e-06	6.000000	1.11927e-06	6.000000	1.09498e-06	6.000000	5.42218e-10	
6.500000	8.36341e-07	6.500000	1.02235e-06	6.500000	1.04594e-06	6.500000	1.04594e-06	6.500000	1.02184e-06	6.500000	5.04275e-10	
7.000000	7.88118e-07	7.000000	9.5885e-07	7.000000	9.82078e-07	7.000000	9.82078e-07	7.000000	9.58379e-07	7.000000	4.71494e-10	
7.500000	7.4558e-07	7.500000	9.03193e-07	7.500000	9.25936e-07	7.500000	9.25936e-07	7.500000	9.0275e-07	7.500000	4.42874e-10	
8.000000	7.0776e-07	8.000000	8.53983e-07	8.000000	8.76169e-07	8.000000	8.76169e-07	8.000000	8.53566e-07	8.000000	4.17662e-10	
8.500000	6.73897e-07	8.500000	8.10142e-07	8.500000	8.3173e-07	8.500000	8.3173e-07	8.500000	8.09747e-07	8.500000	3.95275e-10	
9.000000	6.4339e-07	9.000000	7.7082e-07	9.000000	7.91793e-07	9.000000	7.91793e-07	9.000000	7.70445e-07	9.000000	3.75258e-10	
9.500000	6.15753e-07	9.500000	7.35338e-07	9.500000	7.55692e-07	9.500000	7.55692e-07	9.500000	7.34981e-07	9.500000	3.57248e-10	
10.000000	5.90592e-07	10.000000	6.81882e-07	10.000000	7.22892e-07	10.000000	7.22892e-07	10.000000	6.81541e-07	10.000000	3.40955e-10	
11.000000	5.46452e-07	11.000000	6.33809e-07	11.000000	6.64854e-07	11.000000	6.64889e-07	11.000000	6.33497e-07	11.000000	3.12609e-10	
12.000000	5.08966e-07	12.000000	5.92497e-07	12.000000	6.15971e-07	12.000000	6.16029e-07	12.000000	5.92208e-07	12.000000	2.88776e-10	
13.000000	4.76711e-07	13.000000	5.566e-07 	13.000000	5.74256e-07	13.000000	5.74321e-07	13.000000	5.56331e-07	13.000000	2.68446e-10	
14.000000	4.48644e-07	14.000000	5.25109e-07	14.000000	5.38251e-07	14.000000	5.38313e-07	14.000000	5.24858e-07	14.000000	2.5089e-10	
15.000000	4.23986e-07	15.000000	4.97251e-07	15.000000	5.06863e-07	15.000000	5.06924e-07	15.000000	4.97015e-07	15.000000	2.35571e-10	
16.000000	4.0214e-07	16.000000	4.72424e-07	16.000000	4.79274e-07	16.000000	4.79333e-07	16.000000	4.72202e-07	16.000000	2.22081e-10	
17.000000	3.82643e-07	17.000000	4.50153e-07	17.000000	4.54851e-07	17.000000	4.54902e-07	17.000000	4.49943e-07	17.000000	2.10109e-10	
18.000000	3.65128e-07	18.000000	4.30057e-07	18.000000	4.33092e-07	18.000000	4.33132e-07	18.000000	4.29857e-07	18.000000	1.99407e-10	
19.000000	3.49304e-07	19.000000	4.11829e-07	19.000000	4.13592e-07	19.000000	4.1362e-07	19.000000	4.11639e-07	19.000000	1.89782e-10	
20.000000	3.34931e-07	20.000000	3.95215e-07	20.000000	3.96017e-07	20.000000	3.96046e-07	20.000000	3.95034e-07	20.000000	1.81078e-10	
21.000000	3.21816e-07	21.000000	3.80009e-07	21.000000	3.80113e-07	21.000000	3.80144e-07	21.000000	3.79836e-07	21.000000	1.73166e-10	
22.000000	3.09797e-07	22.000000	3.66035e-07	22.000000	3.65673e-07	22.000000	3.65697e-07	22.000000	3.65869e-07	22.000000	1.65941e-10	
23.000000	2.98739e-07	23.000000	3.53148e-07	23.000000	3.52516e-07	23.000000	3.52523e-07	23.000000	3.52989e-07	23.000000	1.59318e-10	
24.000000	2.88531e-07	24.000000	3.41224e-07	24.000000	3.40481e-07	24.000000	3.40471e-07	24.000000	3.41071e-07	24.000000	1.53222e-10	
25.000000	2.79075e-07	25.000000	3.30158e-07	25.000000	3.29435e-07	25.000000	3.29411e-07	25.000000	3.3001e-07	25.000000	1.47592e-10	
27.000000	2.62106e-07	27.000000	3.10247e-07	27.000000	3.09906e-07	27.000000	3.09844e-07	27.000000	3.10109e-07	27.000000	1.37531e-10	
29.000000	2.47304e-07	29.000000	2.92828e-07	29.000000	2.93195e-07	29.000000	2.93118e-07	29.000000	2.92699e-07	29.000000	1.288e-10 	
31.000000	2.34272e-07	31.000000	2.77455e-07	31.000000	2.78147e-07	31.000000	2.78066e-07	31.000000	2.77334e-07	31.000000	1.21148e-10	
33.000000	2.22706e-07	33.000000	2.63783e-07	33.000000	2.64282e-07	33.000000	2.64177e-07	33.000000	2.63669e-07	33.000000	1.14386e-10	
35.000000	2.12366e-07	35.000000	2.51541e-07	35.000000	2.51862e-07	35.000000	2.51762e-07	35.000000	2.51432e-07	35.000000	1.08363e-10	
38.000000	1.98754e-07	38.000000	2.35398e-07	38.000000	2.35536e-07	38.000000	2.3542e-07	38.000000	2.35297e-07	38.000000	1.0047e-10	
41.000000	1.86996e-07	41.000000	2.21432e-07	41.000000	2.21427e-07	41.000000	2.21308e-07	41.000000	2.21338e-07	41.000000	9.36857e-11	
44.000000	1.76731e-07	44.000000	2.09226e-07	44.000000	2.09097e-07	44.000000	2.08992e-07	44.000000	2.09138e-07	44.000000	8.7789e-11	
47.000000	1.67686e-07	47.000000	1.98463e-07	47.000000	1.98264e-07	47.000000	1.98144e-07	47.000000	1.9838e-07	47.000000	8.26146e-11	
50.000000	1.59653e-07	50.000000	1.88898e-07	50.000000	1.88635e-07	50.000000	1.88514e-07	50.000000	1.8882e-07	50.000000	7.80363e-11	
55.000000	1.48082e-07	55.000000	1.75115e-07	55.000000	1.74785e-07	55.000000	1.74653e-07	55.000000	1.75044e-07	55.000000	7.14721e-11	
60.000000	1.38312e-07	60.000000	1.63478e-07	60.000000	1.63084e-07	60.000000	1.62963e-07	60.000000	1.63412e-07	60.000000	6.59596e-11	
65.000000	1.29946e-07	65.000000	1.53517e-07	65.000000	1.53088e-07	65.000000	1.52964e-07	65.000000	1.53455e-07	65.000000	6.12625e-11	
70.000000	1.22695e-07	70.000000	1.44889e-07	70.000000	1.44436e-07	70.000000	1.4431e-07	70.000000	1.44832e-07	70.000000	5.72104e-11	
75.000000	1.16347e-07	75.000000	1.37341e-07	75.000000	1.36861e-07	75.000000	1.36745e-07	75.000000	1.37288e-07	75.000000	5.36777e-11	
80.000000	1.10739e-07	80.000000	1.30681e-07	80.000000	1.30198e-07	80.000000	1.30072e-07	80.000000	1.30631e-07	80.000000	5.05696e-11	
85.000000	1.05747e-07	85.000000	1.24759e-07	85.000000	1.2426e-07	85.000000	1.24141e-07	85.000000	1.24711e-07	85.000000	4.78131e-11	
90.000000	1.01272e-07	90.000000	1.19457e-07	90.000000	1.18948e-07	90.000000	1.18833e-07	90.000000	1.19411e-07	90.000000	4.53511e-11	
95.000000	9.72354e-08	95.000000	1.14682e-07	95.000000	1.14177e-07	95.000000	1.14055e-07	95.000000	1.14639e-07	95.000000	4.31382e-11	
100.000000	9.35753e-08	100.000000	1.10358e-07	100.000000	1.09847e-07	100.000000	1.0973e-07	100.000000	1.10317e-07	100.000000	4.11382e-11	
105.000000	9.02397e-08	105.000000	1.06424e-07	105.000000	1.05908e-07	105.000000	1.05796e-07	105.000000	1.06385e-07	105.000000	3.93214e-11	
110.000000	8.71864e-08	110.000000	1.02829e-07	110.000000	1.02309e-07	110.000000	1.02202e-07	110.000000	1.02791e-07	110.000000	3.76634e-11	
115.000000	8.43802e-08	115.000000	9.95297e-08	115.000000	9.90161e-08	115.000000	9.89054e-08	115.000000	9.94936e-08	115.000000	3.61441e-11	
120.000000	8.17915e-08	120.000000	9.64918e-08	120.000000	9.59836e-08	120.000000	9.58707e-08	120.000000	9.64571e-08	120.000000	3.47465e-11	
125.000000	7.93954e-08	125.000000	9.36849e-08	125.000000	9.31746e-08	125.000000	9.30675e-08	125.000000	9.36514e-08	125.000000	3.34566e-11	
130.000000	7.71705e-08	130.000000	9.10833e-08	130.000000	9.05743e-08	130.000000	9.04702e-08	130.000000	9.1051e-08	130.000000	3.22621e-11	
135.000000	7.50988e-08	135.000000	8.86651e-08	135.000000	8.81656e-08	135.000000	8.8057e-08	135.000000	8.8634e-08	135.000000	3.11527e-11	
140.000000	7.31645e-08	140.000000	8.64116e-08	140.000000	8.59178e-08	140.000000	8.58087e-08	140.000000	8.63815e-08	140.000000	3.01195e-11	
145.000000	7.1354e-08	145.000000	8.43063e-08	145.000000	8.3814e-08	145.000000	8.3709e-08	145.000000	8.42772e-08	145.000000	2.91549e-11	
150.000000	6.96556e-08	150.000000	8.2335e-08	150.000000	8.18461e-08	150.000000	8.17437e-08	150.000000	8.23068e-08	150.000000	2.82522e-11	
155.000000	6.72642e-08	155.000000	8.04853e-08	155.000000	7.9999e-08	155.000000	7.99002e-08	155.000000	8.04579e-08	155.000000	2.74056e-11	
160.000000	6.58625e-08	160.000000	7.87462e-08	160.000000	7.82655e-08	160.000000	7.81675e-08	160.000000	7.87196e-08	160.000000	2.66099e-11	
165.000000	6.45406e-08	165.000000	7.71079e-08	165.000000	7.66376e-08	165.000000	7.65359e-08	165.000000	7.70821e-08	165.000000	2.58605e-11	
170.000000	6.3292e-08	170.000000	7.55621e-08	170.000000	7.50989e-08	170.000000	7.49969e-08	170.000000	7.55369e-08	170.000000	2.51536e-11	
175.000000	6.21105e-08	175.000000	7.41009e-08	175.000000	7.36417e-08	175.000000	7.35428e-08	175.000000	7.40764e-08	175.000000	2.44856e-11	
180.000000	6.09908e-08	180.000000	7.27177e-08	180.000000	7.22636e-08	180.000000	7.21668e-08	180.000000	7.26939e-08	180.000000	2.38533e-11	
185.000000	5.99282e-08	185.000000	7.14064e-08	185.000000	7.09573e-08	185.000000	7.08627e-08	185.000000	7.13831e-08	185.000000	2.3254e-11	
190.000000	5.89183e-08	190.000000	7.01614e-08	190.000000	6.97173e-08	190.000000	6.96252e-08	190.000000	7.01387e-08	190.000000	2.26849e-11	
195.000000	5.79572e-08	195.000000	6.89779e-08	195.000000	6.85418e-08	195.000000	6.84492e-08	195.000000	6.89558e-08	195.000000	2.2144e-11	
200.000000	5.70414e-08	200.000000	6.78515e-08	200.000000	6.74257e-08	200.000000	6.73303e-08	200.000000	6.78298e-08	200.000000	2.16291e-11	
210.000000	5.53336e-08	210.000000	6.5754e-08	210.000000	6.53418e-08	210.000000	6.52482e-08	210.000000	6.57333e-08	210.000000	2.06702e-11	
220.000000	5.37727e-08	220.000000	6.38409e-08	220.000000	6.34411e-08	220.000000	6.33507e-08	220.000000	6.38211e-08	220.000000	1.97954e-11	
230.000000	5.23405e-08	230.000000	6.2089e-08	230.000000	6.17014e-08	230.000000	6.16146e-08	230.000000	6.207e-08 	230.000000	1.89938e-11	
240.000000	5.10215e-08	240.000000	6.0479e-08	240.000000	6.01096e-08	240.000000	6.00204e-08	240.000000	6.04607e-08	240.000000	1.82566e-11	
250.000000	4.98027e-08	250.000000	5.89942e-08	250.000000	5.86409e-08	250.000000	5.85516e-08	250.000000	5.89766e-08	250.000000	1.75763e-11	
260.000000	4.86732e-08	260.000000	5.76208e-08	260.000000	5.72804e-08	260.000000	5.71941e-08	260.000000	5.76039e-08	260.000000	1.69464e-11	
270.000000	4.76234e-08	270.000000	5.63468e-08	270.000000	5.602e-08 	270.000000	5.59359e-08	270.000000	5.63304e-08	270.000000	1.63615e-11	
280.000000	4.66452e-08	280.000000	5.51619e-08	280.000000	5.48488e-08	280.000000	5.47669e-08	280.000000	5.5146e-08	280.000000	1.58169e-11	
290.000000	4.57315e-08	290.000000	5.40571e-08	290.000000	5.37623e-08	290.000000	5.36779e-08	290.000000	5.40418e-08	290.000000	1.53085e-11	
300.000000	4.48761e-08	300.000000	5.30248e-08	300.000000	5.27459e-08	300.000000	5.26612e-08	300.000000	5.301e-08 	300.000000	1.48328e-11	
310.000000	4.40738e-08	310.000000	5.20582e-08	310.000000	5.17924e-08	310.000000	5.17101e-08	310.000000	5.20438e-08	310.000000	1.43867e-11	
320.000000	4.33196e-08	320.000000	5.11512e-08	320.000000	5.08993e-08	320.000000	5.08185e-08	320.000000	5.11372e-08	320.000000	1.39675e-11	
330.000000	4.26096e-08	330.000000	5.02986e-08	330.000000	5.006e-08 	330.000000	4.99812e-08	330.000000	5.02851e-08	330.000000	1.35727e-11	
340.000000	4.19398e-08	340.000000	4.94959e-08	340.000000	4.92715e-08	340.000000	4.91936e-08	340.000000	4.94827e-08	340.000000	1.32004e-11	
350.000000	4.13071e-08	350.000000	4.87388e-08	350.000000	4.85313e-08	350.000000	4.84514e-08	350.000000	4.87259e-08	350.000000	1.28486e-11	
360.000000	4.07086e-08	360.000000	4.80236e-08	360.000000	4.78315e-08	360.000000	4.7751e-08	360.000000	4.80111e-08	360.000000	1.25156e-11	
370.000000	4.01415e-08	370.000000	4.73472e-08	370.000000	4.71679e-08	370.000000	4.70891e-08	370.000000	4.7335e-08	370.000000	1.22e-11  	
380.000000	3.96035e-08	380.000000	4.67064e-08	380.000000	4.65401e-08	380.000000	4.64627e-08	380.000000	4.66945e-08	380.000000	1.19004e-11	
390.000000	3.90925e-08	390.000000	4.60987e-08	390.000000	4.59455e-08	390.000000	4.58691e-08	390.000000	4.60871e-08	390.000000	1.16156e-11	
400.000000	3.86066e-08	400.000000	4.55216e-08	400.000000	4.53808e-08	400.000000	4.5306e-08	400.000000	4.55103e-08	400.000000	1.13446e-11	
410.000000	3.81439e-08	410.000000	4.4973e-08	410.000000	4.48452e-08	410.000000	4.47711e-08	410.000000	4.4962e-08	410.000000	1.10863e-11	
420.000000	3.7703e-08	420.000000	4.4451e-08	420.000000	4.43377e-08	420.000000	4.42626e-08	420.000000	4.44401e-08	420.000000	1.08399e-11	
430.000000	3.72824e-08	430.000000	4.39536e-08	430.000000	4.3855e-08	430.000000	4.37785e-08	430.000000	4.3943e-08	430.000000	1.06045e-11	
440.000000	3.68807e-08	440.000000	4.34793e-08	440.000000	4.33934e-08	440.000000	4.33172e-08	440.000000	4.34689e-08	440.000000	1.03795e-11	
450.000000	3.64968e-08	450.000000	4.30266e-08	450.000000	4.29523e-08	450.000000	4.28774e-08	450.000000	4.30164e-08	450.000000	1.01641e-11	
460.000000	3.61295e-08	460.000000	4.25941e-08	460.000000	4.25314e-08	460.000000	4.24575e-08	460.000000	4.25841e-08	460.000000	9.95779e-12	
470.000000	3.5778e-08	470.000000	4.21805e-08	470.000000	4.21295e-08	470.000000	4.20563e-08	470.000000	4.21708e-08	470.000000	9.75992e-12	
480.000000	3.54411e-08	480.000000	4.17848e-08	480.000000	4.1745e-08	480.000000	4.16728e-08	480.000000	4.17752e-08	480.000000	9.57e-12  	
490.000000	3.51181e-08	490.000000	4.14058e-08	490.000000	4.13768e-08	490.000000	4.13057e-08	490.000000	4.13964e-08	490.000000	9.38757e-12	
500.000000	3.48082e-08	500.000000	4.10426e-08	500.000000	4.10249e-08	500.000000	4.09543e-08	500.000000	4.10334e-08	500.000000	9.21217e-12	
520.000000	3.42247e-08	520.000000	4.036e-08 	520.000000	4.03667e-08	520.000000	4.02944e-08	520.000000	4.03511e-08	520.000000	8.88093e-12	
540.000000	3.36854e-08	540.000000	3.97306e-08	540.000000	3.97593e-08	540.000000	3.96868e-08	540.000000	3.9722e-08	540.000000	8.57338e-12	
560.000000	3.31859e-08	560.000000	3.91487e-08	560.000000	3.91966e-08	560.000000	3.91258e-08	560.000000	3.91404e-08	560.000000	8.28705e-12	
580.000000	3.27222e-08	580.000000	3.86097e-08	580.000000	3.86765e-08	580.000000	3.86068e-08	580.000000	3.86017e-08	580.000000	8.0198e-12	
600.000000	3.22909e-08	600.000000	3.81093e-08	600.000000	3.81938e-08	600.000000	3.81255e-08	600.000000	3.81015e-08	600.000000	7.76975e-12	
